# OpenSignals Text File Format. Version 1
# {"84:BA:20:5E:FF:7F": {"position": 0, "device": "bitalino_rev", "device name": "84:BA:20:5E:FF:7F", "device connection": "BTH84:BA:20:5E:FF:7F", "sampling rate": 100, "resolution": [4, 1, 1, 1, 1, 10], "firmware version": 1282, "comments": "", "keywords": "", "mode": 0, "sync interval": 2, "date": "2024-3-6", "time": "19:2:40.159", "channels": [1], "sensor": ["EMGBITREV"], "label": ["A1"], "column": ["nSeq", "I1", "I2", "O1", "O2", "A1"], "special": [{}], "digital IO": [0, 0, 1, 1]}}
# EndOfHeader
0	0	0	0	0	422
1	0	0	0	0	625
2	0	0	0	0	423
3	0	0	0	0	633
4	0	0	0	0	427
5	0	0	0	0	621
6	0	0	0	0	429
7	0	0	0	0	622
8	0	0	0	0	429
9	0	0	0	0	624
10	0	0	0	0	427
11	0	0	0	0	618
12	0	0	0	0	429
13	0	0	0	0	631
14	0	0	0	0	437
15	0	0	0	0	618
0	0	0	0	0	441
1	0	0	0	0	619
2	0	0	0	0	431
3	0	0	0	0	634
4	0	0	0	0	425
5	0	0	0	0	626
6	0	0	0	0	432
7	0	0	0	0	621
8	0	0	0	0	422
9	0	0	0	0	614
10	0	0	0	0	431
11	0	0	0	0	615
12	0	0	0	0	437
13	0	0	0	0	630
14	0	0	0	0	433
15	0	0	0	0	620
0	0	0	0	0	441
1	0	0	0	0	618
2	0	0	0	0	436
3	0	0	0	0	615
4	0	0	0	0	441
5	0	0	0	0	617
6	0	0	0	0	439
7	0	0	0	0	621
8	0	0	0	0	438
9	0	0	0	0	614
10	0	0	0	0	445
11	0	0	0	0	613
12	0	0	0	0	437
13	0	0	0	0	622
14	0	0	0	0	437
15	0	0	0	0	606
0	0	0	0	0	446
1	0	0	0	0	618
2	0	0	0	0	436
3	0	0	0	0	609
4	0	0	0	0	447
5	0	0	0	0	613
6	0	0	0	0	444
7	0	0	0	0	617
8	0	0	0	0	449
9	0	0	0	0	605
10	0	0	0	0	438
11	0	0	0	0	615
12	0	0	0	0	444
13	0	0	0	0	610
14	0	0	0	0	455
15	0	0	0	0	596
0	0	0	0	0	449
1	0	0	0	0	606
2	0	0	0	0	449
3	0	0	0	0	605
4	0	0	0	0	458
5	0	0	0	0	608
6	0	0	0	0	449
7	0	0	0	0	603
8	0	0	0	0	458
9	0	0	0	0	600
10	0	0	0	0	454
11	0	0	0	0	604
12	0	0	0	0	458
13	0	0	0	0	595
14	0	0	0	0	464
15	0	0	0	0	600
0	0	0	0	0	465
1	0	0	0	0	599
2	0	0	0	0	461
3	0	0	0	0	586
4	0	0	0	0	466
5	0	0	0	0	603
6	0	0	0	0	468
7	0	0	0	0	593
8	0	0	0	0	466
9	0	0	0	0	592
10	0	0	0	0	468
11	0	0	0	0	599
12	0	0	0	0	464
13	0	0	0	0	583
14	0	0	0	0	469
15	0	0	0	0	599
0	0	0	0	0	470
1	0	0	0	0	592
2	0	0	0	0	465
3	0	0	0	0	589
4	0	0	0	0	474
5	0	0	0	0	595
6	0	0	0	0	464
7	0	0	0	0	585
8	0	0	0	0	475
9	0	0	0	0	590
10	0	0	0	0	470
11	0	0	0	0	584
12	0	0	0	0	481
13	0	0	0	0	580
14	0	0	0	0	476
15	0	0	0	0	597
0	0	0	0	0	465
1	0	0	0	0	585
2	0	0	0	0	473
3	0	0	0	0	585
4	0	0	0	0	479
5	0	0	0	0	583
6	0	0	0	0	484
7	0	0	0	0	573
8	0	0	0	0	488
9	0	0	0	0	595
10	0	0	0	0	471
11	0	0	0	0	591
12	0	0	0	0	483
13	0	0	0	0	578
14	0	0	0	0	476
15	0	0	0	0	580
0	0	0	0	0	492
1	0	0	0	0	567
2	0	0	0	0	494
3	0	0	0	0	583
4	0	0	0	0	494
5	0	0	0	0	579
6	0	0	0	0	497
7	0	0	0	0	568
8	0	0	0	0	486
9	0	0	0	0	578
10	0	0	0	0	497
11	0	0	0	0	567
12	0	0	0	0	500
13	0	0	0	0	570
14	0	0	0	0	511
15	0	0	0	0	554
0	0	0	0	0	527
1	0	0	0	0	541
2	0	0	0	0	531
3	0	0	0	0	543
4	0	0	0	0	531
5	0	0	0	0	541
6	0	0	0	0	534
7	0	0	0	0	542
8	0	0	0	0	526
9	0	0	0	0	540
10	0	0	0	0	541
11	0	0	0	0	541
12	0	0	0	0	534
13	0	0	0	0	540
14	0	0	0	0	532
15	0	0	0	0	539
0	0	0	0	0	537
1	0	0	0	0	533
2	0	0	0	0	542
3	0	0	0	0	536
4	0	0	0	0	529
5	0	0	0	0	540
6	0	0	0	0	531
7	0	0	0	0	543
8	0	0	0	0	526
9	0	0	0	0	540
10	0	0	0	0	524
11	0	0	0	0	551
12	0	0	0	0	522
13	0	0	0	0	545
14	0	0	0	0	521
15	0	0	0	0	552
0	0	0	0	0	515
1	0	0	0	0	562
2	0	0	0	0	522
3	0	0	0	0	554
4	0	0	0	0	520
5	0	0	0	0	548
6	0	0	0	0	527
7	0	0	0	0	555
8	0	0	0	0	514
9	0	0	0	0	552
10	0	0	0	0	515
11	0	0	0	0	555
12	0	0	0	0	518
13	0	0	0	0	559
14	0	0	0	0	502
15	0	0	0	0	617
0	0	0	0	0	444
1	0	0	0	0	597
2	0	0	0	0	445
3	0	0	0	0	612
4	0	0	0	0	451
5	0	0	0	0	605
6	0	0	0	0	445
7	0	0	0	0	629
8	0	0	0	0	439
9	0	0	0	0	614
10	0	0	0	0	445
11	0	0	0	0	631
12	0	0	0	0	438
13	0	0	0	0	632
14	0	0	0	0	442
15	0	0	0	0	618
0	0	0	0	0	449
1	0	0	0	0	626
2	0	0	0	0	435
3	0	0	0	0	614
4	0	0	0	0	438
5	0	0	0	0	626
6	0	0	0	0	429
7	0	0	0	0	632
8	0	0	0	0	438
9	0	0	0	0	618
10	0	0	0	0	435
11	0	0	0	0	638
12	0	0	0	0	423
13	0	0	0	0	645
14	0	0	0	0	430
15	0	0	0	0	623
0	0	0	0	0	420
1	0	0	0	0	638
2	0	0	0	0	423
3	0	0	0	0	633
4	0	0	0	0	419
5	0	0	0	0	653
6	0	0	0	0	406
7	0	0	0	0	656
8	0	0	0	0	407
9	0	0	0	0	646
10	0	0	0	0	412
11	0	0	0	0	661
12	0	0	0	0	405
13	0	0	0	0	648
14	0	0	0	0	406
15	0	0	0	0	664
0	0	0	0	0	391
1	0	0	0	0	681
2	0	0	0	0	395
3	0	0	0	0	649
4	0	0	0	0	388
5	0	0	0	0	674
6	0	0	0	0	383
7	0	0	0	0	682
8	0	0	0	0	387
9	0	0	0	0	670
10	0	0	0	0	383
11	0	0	0	0	677
12	0	0	0	0	386
13	0	0	0	0	660
14	0	0	0	0	378
15	0	0	0	0	685
0	0	0	0	0	374
1	0	0	0	0	690
2	0	0	0	0	373
3	0	0	0	0	666
4	0	0	0	0	376
5	0	0	0	0	690
6	0	0	0	0	373
7	0	0	0	0	695
8	0	0	0	0	370
9	0	0	0	0	689
10	0	0	0	0	365
11	0	0	0	0	689
12	0	0	0	0	368
13	0	0	0	0	677
14	0	0	0	0	364
15	0	0	0	0	699
0	0	0	0	0	358
1	0	0	0	0	699
2	0	0	0	0	366
3	0	0	0	0	694
4	0	0	0	0	357
5	0	0	0	0	703
6	0	0	0	0	365
7	0	0	0	0	680
8	0	0	0	0	361
9	0	0	0	0	702
10	0	0	0	0	350
11	0	0	0	0	709
12	0	0	0	0	355
13	0	0	0	0	685
14	0	0	0	0	366
15	0	0	0	0	703
0	0	0	0	0	357
1	0	0	0	0	705
2	0	0	0	0	363
3	0	0	0	0	703
4	0	0	0	0	356
5	0	0	0	0	707
6	0	0	0	0	354
7	0	0	0	0	689
8	0	0	0	0	366
9	0	0	0	0	710
10	0	0	0	0	356
11	0	0	0	0	709
12	0	0	0	0	362
13	0	0	0	0	694
14	0	0	0	0	367
15	0	0	0	0	705
0	0	0	0	0	364
1	0	0	0	0	693
2	0	0	0	0	359
3	0	0	0	0	708
4	0	0	0	0	354
5	0	0	0	0	700
6	0	0	0	0	367
7	0	0	0	0	696
8	0	0	0	0	365
9	0	0	0	0	701
10	0	0	0	0	358
11	0	0	0	0	694
12	0	0	0	0	359
13	0	0	0	0	704
14	0	0	0	0	367
15	0	0	0	0	703
0	0	0	0	0	362
1	0	0	0	0	685
2	0	0	0	0	360
3	0	0	0	0	701
4	0	0	0	0	367
5	0	0	0	0	695
6	0	0	0	0	365
7	0	0	0	0	703
8	0	0	0	0	362
9	0	0	0	0	706
10	0	0	0	0	370
11	0	0	0	0	697
12	0	0	0	0	361
13	0	0	0	0	702
14	0	0	0	0	354
15	0	0	0	0	696
0	0	0	0	0	366
1	0	0	0	0	698
2	0	0	0	0	368
3	0	0	0	0	709
4	0	0	0	0	363
5	0	0	0	0	697
6	0	0	0	0	363
7	0	0	0	0	699
8	0	0	0	0	366
9	0	0	0	0	696
10	0	0	0	0	357
11	0	0	0	0	685
12	0	0	0	0	369
13	0	0	0	0	697
14	0	0	0	0	368
15	0	0	0	0	697
0	0	0	0	0	367
1	0	0	0	0	682
2	0	0	0	0	373
3	0	0	0	0	698
4	0	0	0	0	370
5	0	0	0	0	699
6	0	0	0	0	365
7	0	0	0	0	698
8	0	0	0	0	362
9	0	0	0	0	695
10	0	0	0	0	367
11	0	0	0	0	689
12	0	0	0	0	363
13	0	0	0	0	692
14	0	0	0	0	367
15	0	0	0	0	695
0	0	0	0	0	369
1	0	0	0	0	692
2	0	0	0	0	374
3	0	0	0	0	698
4	0	0	0	0	362
5	0	0	0	0	692
6	0	0	0	0	359
7	0	0	0	0	689
8	0	0	0	0	369
9	0	0	0	0	690
10	0	0	0	0	367
11	0	0	0	0	696
12	0	0	0	0	369
13	0	0	0	0	692
14	0	0	0	0	367
15	0	0	0	0	690
0	0	0	0	0	365
1	0	0	0	0	690
2	0	0	0	0	365
3	0	0	0	0	698
4	0	0	0	0	369
5	0	0	0	0	687
6	0	0	0	0	381
7	0	0	0	0	685
8	0	0	0	0	371
9	0	0	0	0	693
10	0	0	0	0	373
11	0	0	0	0	689
12	0	0	0	0	368
13	0	0	0	0	685
14	0	0	0	0	370
15	0	0	0	0	692
0	0	0	0	0	367
1	0	0	0	0	683
2	0	0	0	0	378
3	0	0	0	0	684
4	0	0	0	0	373
5	0	0	0	0	682
6	0	0	0	0	375
7	0	0	0	0	679
8	0	0	0	0	377
9	0	0	0	0	685
10	0	0	0	0	373
11	0	0	0	0	691
12	0	0	0	0	372
13	0	0	0	0	681
14	0	0	0	0	374
15	0	0	0	0	682
0	0	0	0	0	384
1	0	0	0	0	682
2	0	0	0	0	378
3	0	0	0	0	680
4	0	0	0	0	376
5	0	0	0	0	683
6	0	0	0	0	389
7	0	0	0	0	677
8	0	0	0	0	377
9	0	0	0	0	682
10	0	0	0	0	373
11	0	0	0	0	682
12	0	0	0	0	380
13	0	0	0	0	670
14	0	0	0	0	374
15	0	0	0	0	678
0	0	0	0	0	386
1	0	0	0	0	684
2	0	0	0	0	383
3	0	0	0	0	686
4	0	0	0	0	382
5	0	0	0	0	679
6	0	0	0	0	377
7	0	0	0	0	677
8	0	0	0	0	379
9	0	0	0	0	684
10	0	0	0	0	387
11	0	0	0	0	681
12	0	0	0	0	379
13	0	0	0	0	689
14	0	0	0	0	388
15	0	0	0	0	682
0	0	0	0	0	385
1	0	0	0	0	678
2	0	0	0	0	378
3	0	0	0	0	677
4	0	0	0	0	386
5	0	0	0	0	675
6	0	0	0	0	377
7	0	0	0	0	684
8	0	0	0	0	384
9	0	0	0	0	683
10	0	0	0	0	381
11	0	0	0	0	678
12	0	0	0	0	378
13	0	0	0	0	684
14	0	0	0	0	376
15	0	0	0	0	675
0	0	0	0	0	391
1	0	0	0	0	678
2	0	0	0	0	382
3	0	0	0	0	674
4	0	0	0	0	390
5	0	0	0	0	678
6	0	0	0	0	371
7	0	0	0	0	678
8	0	0	0	0	379
9	0	0	0	0	676
10	0	0	0	0	387
11	0	0	0	0	680
12	0	0	0	0	381
13	0	0	0	0	684
14	0	0	0	0	385
15	0	0	0	0	676
0	0	0	0	0	380
1	0	0	0	0	677
2	0	0	0	0	378
3	0	0	0	0	674
4	0	0	0	0	389
5	0	0	0	0	675
6	0	0	0	0	389
7	0	0	0	0	671
8	0	0	0	0	383
9	0	0	0	0	676
10	0	0	0	0	388
11	0	0	0	0	682
12	0	0	0	0	378
13	0	0	0	0	679
14	0	0	0	0	386
15	0	0	0	0	676
0	0	0	0	0	387
1	0	0	0	0	673
2	0	0	0	0	384
3	0	0	0	0	678
4	0	0	0	0	392
5	0	0	0	0	669
6	0	0	0	0	383
7	0	0	0	0	672
8	0	0	0	0	381
9	0	0	0	0	683
10	0	0	0	0	386
11	0	0	0	0	676
12	0	0	0	0	378
13	0	0	0	0	677
14	0	0	0	0	392
15	0	0	0	0	676
0	0	0	0	0	378
1	0	0	0	0	677
2	0	0	0	0	393
3	0	0	0	0	664
4	0	0	0	0	386
5	0	0	0	0	670
6	0	0	0	0	386
7	0	0	0	0	668
8	0	0	0	0	386
9	0	0	0	0	673
10	0	0	0	0	389
11	0	0	0	0	673
12	0	0	0	0	386
13	0	0	0	0	675
14	0	0	0	0	387
15	0	0	0	0	676
0	0	0	0	0	382
1	0	0	0	0	674
2	0	0	0	0	389
3	0	0	0	0	675
4	0	0	0	0	385
5	0	0	0	0	672
6	0	0	0	0	384
7	0	0	0	0	673
8	0	0	0	0	388
9	0	0	0	0	673
10	0	0	0	0	386
11	0	0	0	0	667
12	0	0	0	0	381
13	0	0	0	0	679
14	0	0	0	0	387
15	0	0	0	0	677
0	0	0	0	0	390
1	0	0	0	0	672
2	0	0	0	0	383
3	0	0	0	0	677
4	0	0	0	0	389
5	0	0	0	0	682
6	0	0	0	0	386
7	0	0	0	0	672
8	0	0	0	0	383
9	0	0	0	0	676
10	0	0	0	0	378
11	0	0	0	0	683
12	0	0	0	0	386
13	0	0	0	0	668
14	0	0	0	0	384
15	0	0	0	0	671
0	0	0	0	0	383
1	0	0	0	0	664
2	0	0	0	0	393
3	0	0	0	0	674
4	0	0	0	0	385
5	0	0	0	0	682
6	0	0	0	0	387
7	0	0	0	0	672
8	0	0	0	0	389
9	0	0	0	0	682
10	0	0	0	0	386
11	0	0	0	0	675
12	0	0	0	0	388
13	0	0	0	0	678
14	0	0	0	0	388
15	0	0	0	0	679
0	0	0	0	0	385
1	0	0	0	0	673
2	0	0	0	0	394
3	0	0	0	0	675
4	0	0	0	0	378
5	0	0	0	0	673
6	0	0	0	0	388
7	0	0	0	0	677
8	0	0	0	0	392
9	0	0	0	0	679
10	0	0	0	0	390
11	0	0	0	0	678
12	0	0	0	0	389
13	0	0	0	0	672
14	0	0	0	0	389
15	0	0	0	0	675
0	0	0	0	0	383
1	0	0	0	0	673
2	0	0	0	0	389
3	0	0	0	0	671
4	0	0	0	0	380
5	0	0	0	0	679
6	0	0	0	0	386
7	0	0	0	0	676
8	0	0	0	0	379
9	0	0	0	0	677
10	0	0	0	0	391
11	0	0	0	0	680
12	0	0	0	0	383
13	0	0	0	0	667
14	0	0	0	0	384
15	0	0	0	0	675
0	0	0	0	0	385
1	0	0	0	0	670
2	0	0	0	0	385
3	0	0	0	0	677
4	0	0	0	0	378
5	0	0	0	0	682
6	0	0	0	0	388
7	0	0	0	0	679
8	0	0	0	0	378
9	0	0	0	0	685
10	0	0	0	0	383
11	0	0	0	0	684
12	0	0	0	0	374
13	0	0	0	0	679
14	0	0	0	0	379
15	0	0	0	0	678
0	0	0	0	0	388
1	0	0	0	0	672
2	0	0	0	0	383
3	0	0	0	0	688
4	0	0	0	0	377
5	0	0	0	0	685
6	0	0	0	0	379
7	0	0	0	0	682
8	0	0	0	0	381
9	0	0	0	0	682
10	0	0	0	0	381
11	0	0	0	0	686
12	0	0	0	0	381
13	0	0	0	0	678
14	0	0	0	0	374
15	0	0	0	0	682
0	0	0	0	0	385
1	0	0	0	0	678
2	0	0	0	0	374
3	0	0	0	0	680
4	0	0	0	0	377
5	0	0	0	0	678
6	0	0	0	0	378
7	0	0	0	0	680
8	0	0	0	0	377
9	0	0	0	0	681
10	0	0	0	0	381
11	0	0	0	0	679
12	0	0	0	0	378
13	0	0	0	0	680
14	0	0	0	0	377
15	0	0	0	0	681
0	0	0	0	0	379
1	0	0	0	0	679
2	0	0	0	0	374
3	0	0	0	0	680
4	0	0	0	0	377
5	0	0	0	0	677
6	0	0	0	0	377
7	0	0	0	0	680
8	0	0	0	0	373
9	0	0	0	0	682
10	0	0	0	0	382
11	0	0	0	0	684
12	0	0	0	0	378
13	0	0	0	0	682
14	0	0	0	0	379
15	0	0	0	0	676
0	0	0	0	0	382
1	0	0	0	0	679
2	0	0	0	0	382
3	0	0	0	0	674
4	0	0	0	0	379
5	0	0	0	0	673
6	0	0	0	0	379
7	0	0	0	0	687
8	0	0	0	0	378
9	0	0	0	0	685
10	0	0	0	0	380
11	0	0	0	0	678
12	0	0	0	0	378
13	0	0	0	0	678
14	0	0	0	0	380
15	0	0	0	0	684
0	0	0	0	0	378
1	0	0	0	0	688
2	0	0	0	0	383
3	0	0	0	0	681
4	0	0	0	0	380
5	0	0	0	0	684
6	0	0	0	0	384
7	0	0	0	0	678
8	0	0	0	0	377
9	0	0	0	0	678
10	0	0	0	0	372
11	0	0	0	0	685
12	0	0	0	0	370
13	0	0	0	0	679
14	0	0	0	0	380
15	0	0	0	0	678
0	0	0	0	0	378
1	0	0	0	0	685
2	0	0	0	0	381
3	0	0	0	0	678
4	0	0	0	0	378
5	0	0	0	0	680
6	0	0	0	0	381
7	0	0	0	0	682
8	0	0	0	0	377
9	0	0	0	0	683
10	0	0	0	0	376
11	0	0	0	0	693
12	0	0	0	0	378
13	0	0	0	0	686
14	0	0	0	0	384
15	0	0	0	0	681
0	0	0	0	0	376
1	0	0	0	0	686
2	0	0	0	0	383
3	0	0	0	0	684
4	0	0	0	0	374
5	0	0	0	0	680
6	0	0	0	0	378
7	0	0	0	0	680
8	0	0	0	0	377
9	0	0	0	0	683
10	0	0	0	0	383
11	0	0	0	0	675
12	0	0	0	0	373
13	0	0	0	0	677
14	0	0	0	0	377
15	0	0	0	0	677
0	0	0	0	0	380
1	0	0	0	0	688
2	0	0	0	0	373
3	0	0	0	0	687
4	0	0	0	0	380
5	0	0	0	0	684
6	0	0	0	0	382
7	0	0	0	0	685
8	0	0	0	0	378
9	0	0	0	0	684
10	0	0	0	0	389
11	0	0	0	0	684
12	0	0	0	0	374
13	0	0	0	0	675
14	0	0	0	0	382
15	0	0	0	0	678
0	0	0	0	0	378
1	0	0	0	0	682
2	0	0	0	0	381
3	0	0	0	0	690
4	0	0	0	0	382
5	0	0	0	0	677
6	0	0	0	0	382
7	0	0	0	0	677
8	0	0	0	0	380
9	0	0	0	0	679
10	0	0	0	0	380
11	0	0	0	0	682
12	0	0	0	0	381
13	0	0	0	0	675
14	0	0	0	0	386
15	0	0	0	0	680
0	0	0	0	0	378
1	0	0	0	0	678
2	0	0	0	0	383
3	0	0	0	0	671
4	0	0	0	0	379
5	0	0	0	0	679
6	0	0	0	0	383
7	0	0	0	0	684
8	0	0	0	0	383
9	0	0	0	0	682
10	0	0	0	0	380
11	0	0	0	0	674
12	0	0	0	0	389
13	0	0	0	0	680
14	0	0	0	0	384
15	0	0	0	0	685
0	0	0	0	0	384
1	0	0	0	0	678
2	0	0	0	0	382
3	0	0	0	0	677
4	0	0	0	0	378
5	0	0	0	0	679
6	0	0	0	0	376
7	0	0	0	0	672
8	0	0	0	0	382
9	0	0	0	0	675
10	0	0	0	0	383
11	0	0	0	0	682
12	0	0	0	0	386
13	0	0	0	0	678
14	0	0	0	0	387
15	0	0	0	0	678
0	0	0	0	0	383
1	0	0	0	0	683
2	0	0	0	0	385
3	0	0	0	0	676
4	0	0	0	0	380
5	0	0	0	0	676
6	0	0	0	0	384
7	0	0	0	0	679
8	0	0	0	0	388
9	0	0	0	0	677
10	0	0	0	0	383
11	0	0	0	0	673
12	0	0	0	0	382
13	0	0	0	0	674
14	0	0	0	0	380
15	0	0	0	0	677
0	0	0	0	0	377
1	0	0	0	0	672
2	0	0	0	0	382
3	0	0	0	0	673
4	0	0	0	0	382
5	0	0	0	0	677
6	0	0	0	0	382
7	0	0	0	0	677
8	0	0	0	0	389
9	0	0	0	0	676
10	0	0	0	0	385
11	0	0	0	0	678
12	0	0	0	0	387
13	0	0	0	0	672
14	0	0	0	0	384
15	0	0	0	0	674
0	0	0	0	0	384
1	0	0	0	0	677
2	0	0	0	0	385
3	0	0	0	0	676
4	0	0	0	0	385
5	0	0	0	0	679
6	0	0	0	0	386
7	0	0	0	0	673
8	0	0	0	0	384
9	0	0	0	0	672
10	0	0	0	0	388
11	0	0	0	0	666
12	0	0	0	0	387
13	0	0	0	0	664
14	0	0	0	0	390
15	0	0	0	0	668
0	0	0	0	0	397
1	0	0	0	0	669
2	0	0	0	0	390
3	0	0	0	0	677
4	0	0	0	0	388
5	0	0	0	0	679
6	0	0	0	0	389
7	0	0	0	0	672
8	0	0	0	0	386
9	0	0	0	0	673
10	0	0	0	0	395
11	0	0	0	0	677
12	0	0	0	0	388
13	0	0	0	0	663
14	0	0	0	0	397
15	0	0	0	0	676
0	0	0	0	0	382
1	0	0	0	0	674
2	0	0	0	0	386
3	0	0	0	0	677
4	0	0	0	0	396
5	0	0	0	0	669
6	0	0	0	0	394
7	0	0	0	0	676
8	0	0	0	0	396
9	0	0	0	0	669
10	0	0	0	0	386
11	0	0	0	0	673
12	0	0	0	0	390
13	0	0	0	0	670
14	0	0	0	0	382
15	0	0	0	0	669
0	0	0	0	0	391
1	0	0	0	0	673
2	0	0	0	0	394
3	0	0	0	0	676
4	0	0	0	0	394
5	0	0	0	0	665
6	0	0	0	0	397
7	0	0	0	0	682
8	0	0	0	0	396
9	0	0	0	0	670
10	0	0	0	0	389
11	0	0	0	0	671
12	0	0	0	0	398
13	0	0	0	0	671
14	0	0	0	0	389
15	0	0	0	0	672
0	0	0	0	0	388
1	0	0	0	0	673
2	0	0	0	0	389
3	0	0	0	0	671
4	0	0	0	0	389
5	0	0	0	0	670
6	0	0	0	0	396
7	0	0	0	0	678
8	0	0	0	0	396
9	0	0	0	0	668
10	0	0	0	0	390
11	0	0	0	0	671
12	0	0	0	0	387
13	0	0	0	0	669
14	0	0	0	0	391
15	0	0	0	0	681
0	0	0	0	0	388
1	0	0	0	0	665
2	0	0	0	0	390
3	0	0	0	0	670
4	0	0	0	0	391
5	0	0	0	0	675
6	0	0	0	0	392
7	0	0	0	0	665
8	0	0	0	0	390
9	0	0	0	0	673
10	0	0	0	0	395
11	0	0	0	0	675
12	0	0	0	0	384
13	0	0	0	0	670
14	0	0	0	0	391
15	0	0	0	0	671
0	0	0	0	0	393
1	0	0	0	0	675
2	0	0	0	0	386
3	0	0	0	0	679
4	0	0	0	0	395
5	0	0	0	0	668
6	0	0	0	0	392
7	0	0	0	0	671
8	0	0	0	0	395
9	0	0	0	0	673
10	0	0	0	0	395
11	0	0	0	0	668
12	0	0	0	0	391
13	0	0	0	0	668
14	0	0	0	0	395
15	0	0	0	0	669
0	0	0	0	0	386
1	0	0	0	0	666
2	0	0	0	0	393
3	0	0	0	0	669
4	0	0	0	0	389
5	0	0	0	0	666
6	0	0	0	0	397
7	0	0	0	0	673
8	0	0	0	0	392
9	0	0	0	0	662
10	0	0	0	0	394
11	0	0	0	0	675
12	0	0	0	0	395
13	0	0	0	0	671
14	0	0	0	0	394
15	0	0	0	0	670
0	0	0	0	0	393
1	0	0	0	0	666
2	0	0	0	0	394
3	0	0	0	0	672
4	0	0	0	0	394
5	0	0	0	0	672
6	0	0	0	0	397
7	0	0	0	0	665
8	0	0	0	0	394
9	0	0	0	0	672
10	0	0	0	0	395
11	0	0	0	0	678
12	0	0	0	0	396
13	0	0	0	0	666
14	0	0	0	0	393
15	0	0	0	0	669
0	0	0	0	0	392
1	0	0	0	0	666
2	0	0	0	0	400
3	0	0	0	0	673
4	0	0	0	0	389
5	0	0	0	0	666
6	0	0	0	0	401
7	0	0	0	0	666
8	0	0	0	0	396
9	0	0	0	0	669
10	0	0	0	0	394
11	0	0	0	0	669
12	0	0	0	0	392
13	0	0	0	0	673
14	0	0	0	0	395
15	0	0	0	0	664
0	0	0	0	0	390
1	0	0	0	0	671
2	0	0	0	0	395
3	0	0	0	0	667
4	0	0	0	0	382
5	0	0	0	0	663
6	0	0	0	0	396
7	0	0	0	0	665
8	0	0	0	0	398
9	0	0	0	0	664
10	0	0	0	0	395
11	0	0	0	0	670
12	0	0	0	0	384
13	0	0	0	0	672
14	0	0	0	0	396
15	0	0	0	0	676
0	0	0	0	0	391
1	0	0	0	0	664
2	0	0	0	0	395
3	0	0	0	0	668
4	0	0	0	0	393
5	0	0	0	0	662
6	0	0	0	0	397
7	0	0	0	0	671
8	0	0	0	0	386
9	0	0	0	0	673
10	0	0	0	0	389
11	0	0	0	0	664
12	0	0	0	0	398
13	0	0	0	0	660
14	0	0	0	0	390
15	0	0	0	0	670
0	0	0	0	0	389
1	0	0	0	0	669
2	0	0	0	0	397
3	0	0	0	0	675
4	0	0	0	0	393
5	0	0	0	0	665
6	0	0	0	0	393
7	0	0	0	0	673
8	0	0	0	0	389
9	0	0	0	0	664
10	0	0	0	0	398
11	0	0	0	0	667
12	0	0	0	0	390
13	0	0	0	0	669
14	0	0	0	0	400
15	0	0	0	0	665
0	0	0	0	0	398
1	0	0	0	0	666
2	0	0	0	0	389
3	0	0	0	0	668
4	0	0	0	0	390
5	0	0	0	0	665
6	0	0	0	0	393
7	0	0	0	0	673
8	0	0	0	0	392
9	0	0	0	0	663
10	0	0	0	0	395
11	0	0	0	0	664
12	0	0	0	0	393
13	0	0	0	0	669
14	0	0	0	0	397
15	0	0	0	0	673
0	0	0	0	0	394
1	0	0	0	0	668
2	0	0	0	0	399
3	0	0	0	0	670
4	0	0	0	0	392
5	0	0	0	0	663
6	0	0	0	0	394
7	0	0	0	0	663
8	0	0	0	0	391
9	0	0	0	0	675
10	0	0	0	0	397
11	0	0	0	0	667
12	0	0	0	0	395
13	0	0	0	0	674
14	0	0	0	0	397
15	0	0	0	0	668
0	0	0	0	0	399
1	0	0	0	0	670
2	0	0	0	0	393
3	0	0	0	0	663
4	0	0	0	0	395
5	0	0	0	0	670
6	0	0	0	0	390
7	0	0	0	0	668
8	0	0	0	0	394
9	0	0	0	0	670
10	0	0	0	0	398
11	0	0	0	0	666
12	0	0	0	0	393
13	0	0	0	0	675
14	0	0	0	0	394
15	0	0	0	0	668
0	0	0	0	0	398
1	0	0	0	0	676
2	0	0	0	0	399
3	0	0	0	0	661
4	0	0	0	0	390
5	0	0	0	0	672
6	0	0	0	0	399
7	0	0	0	0	670
8	0	0	0	0	392
9	0	0	0	0	660
10	0	0	0	0	390
11	0	0	0	0	666
12	0	0	0	0	396
13	0	0	0	0	665
14	0	0	0	0	391
15	0	0	0	0	670
0	0	0	0	0	392
1	0	0	0	0	661
2	0	0	0	0	394
3	0	0	0	0	663
4	0	0	0	0	394
5	0	0	0	0	664
6	0	0	0	0	394
7	0	0	0	0	667
8	0	0	0	0	396
9	0	0	0	0	666
10	0	0	0	0	404
11	0	0	0	0	670
12	0	0	0	0	398
13	0	0	0	0	667
14	0	0	0	0	398
15	0	0	0	0	666
0	0	0	0	0	387
1	0	0	0	0	666
2	0	0	0	0	397
3	0	0	0	0	668
4	0	0	0	0	397
5	0	0	0	0	672
6	0	0	0	0	396
7	0	0	0	0	665
8	0	0	0	0	398
9	0	0	0	0	660
10	0	0	0	0	397
11	0	0	0	0	668
12	0	0	0	0	396
13	0	0	0	0	668
14	0	0	0	0	393
15	0	0	0	0	664
0	0	0	0	0	401
1	0	0	0	0	669
2	0	0	0	0	402
3	0	0	0	0	672
4	0	0	0	0	402
5	0	0	0	0	669
6	0	0	0	0	396
7	0	0	0	0	668
8	0	0	0	0	401
9	0	0	0	0	667
10	0	0	0	0	400
11	0	0	0	0	669
12	0	0	0	0	397
13	0	0	0	0	666
14	0	0	0	0	397
15	0	0	0	0	668
0	0	0	0	0	398
1	0	0	0	0	673
2	0	0	0	0	397
3	0	0	0	0	668
4	0	0	0	0	401
5	0	0	0	0	667
6	0	0	0	0	399
7	0	0	0	0	662
8	0	0	0	0	398
9	0	0	0	0	668
10	0	0	0	0	397
11	0	0	0	0	669
12	0	0	0	0	402
13	0	0	0	0	673
14	0	0	0	0	406
15	0	0	0	0	668
0	0	0	0	0	393
1	0	0	0	0	670
2	0	0	0	0	399
3	0	0	0	0	662
4	0	0	0	0	399
5	0	0	0	0	671
6	0	0	0	0	401
7	0	0	0	0	672
8	0	0	0	0	405
9	0	0	0	0	661
10	0	0	0	0	399
11	0	0	0	0	665
12	0	0	0	0	401
13	0	0	0	0	669
14	0	0	0	0	409
15	0	0	0	0	662
0	0	0	0	0	394
1	0	0	0	0	666
2	0	0	0	0	402
3	0	0	0	0	670
4	0	0	0	0	394
5	0	0	0	0	669
6	0	0	0	0	396
7	0	0	0	0	671
8	0	0	0	0	399
9	0	0	0	0	676
10	0	0	0	0	407
11	0	0	0	0	667
12	0	0	0	0	404
13	0	0	0	0	664
14	0	0	0	0	405
15	0	0	0	0	665
0	0	0	0	0	401
1	0	0	0	0	662
2	0	0	0	0	401
3	0	0	0	0	664
4	0	0	0	0	394
5	0	0	0	0	665
6	0	0	0	0	401
7	0	0	0	0	668
8	0	0	0	0	412
9	0	0	0	0	660
10	0	0	0	0	404
11	0	0	0	0	664
12	0	0	0	0	401
13	0	0	0	0	670
14	0	0	0	0	407
15	0	0	0	0	666
0	0	0	0	0	401
1	0	0	0	0	662
2	0	0	0	0	403
3	0	0	0	0	665
4	0	0	0	0	404
5	0	0	0	0	665
6	0	0	0	0	402
7	0	0	0	0	665
8	0	0	0	0	408
9	0	0	0	0	665
10	0	0	0	0	400
11	0	0	0	0	663
12	0	0	0	0	407
13	0	0	0	0	664
14	0	0	0	0	405
15	0	0	0	0	658
0	0	0	0	0	404
1	0	0	0	0	656
2	0	0	0	0	402
3	0	0	0	0	669
4	0	0	0	0	408
5	0	0	0	0	665
6	0	0	0	0	404
7	0	0	0	0	661
8	0	0	0	0	403
9	0	0	0	0	660
10	0	0	0	0	411
11	0	0	0	0	663
12	0	0	0	0	410
13	0	0	0	0	666
14	0	0	0	0	404
15	0	0	0	0	659
0	0	0	0	0	414
1	0	0	0	0	668
2	0	0	0	0	405
3	0	0	0	0	657
4	0	0	0	0	403
5	0	0	0	0	661
6	0	0	0	0	406
7	0	0	0	0	666
8	0	0	0	0	409
9	0	0	0	0	661
10	0	0	0	0	406
11	0	0	0	0	659
12	0	0	0	0	406
13	0	0	0	0	658
14	0	0	0	0	409
15	0	0	0	0	662
0	0	0	0	0	404
1	0	0	0	0	661
2	0	0	0	0	412
3	0	0	0	0	659
4	0	0	0	0	403
5	0	0	0	0	663
6	0	0	0	0	412
7	0	0	0	0	663
8	0	0	0	0	406
9	0	0	0	0	666
10	0	0	0	0	403
11	0	0	0	0	660
12	0	0	0	0	405
13	0	0	0	0	663
14	0	0	0	0	401
15	0	0	0	0	658
0	0	0	0	0	407
1	0	0	0	0	667
2	0	0	0	0	412
3	0	0	0	0	667
4	0	0	0	0	410
5	0	0	0	0	658
6	0	0	0	0	413
7	0	0	0	0	665
8	0	0	0	0	406
9	0	0	0	0	664
10	0	0	0	0	417
11	0	0	0	0	657
12	0	0	0	0	405
13	0	0	0	0	659
14	0	0	0	0	411
15	0	0	0	0	656
0	0	0	0	0	411
1	0	0	0	0	660
2	0	0	0	0	409
3	0	0	0	0	655
4	0	0	0	0	409
5	0	0	0	0	663
6	0	0	0	0	406
7	0	0	0	0	661
8	0	0	0	0	410
9	0	0	0	0	658
10	0	0	0	0	413
11	0	0	0	0	668
12	0	0	0	0	407
13	0	0	0	0	658
14	0	0	0	0	413
15	0	0	0	0	666
0	0	0	0	0	403
1	0	0	0	0	660
2	0	0	0	0	406
3	0	0	0	0	663
4	0	0	0	0	414
5	0	0	0	0	654
6	0	0	0	0	408
7	0	0	0	0	658
8	0	0	0	0	410
9	0	0	0	0	655
10	0	0	0	0	417
11	0	0	0	0	661
12	0	0	0	0	410
13	0	0	0	0	666
14	0	0	0	0	410
15	0	0	0	0	650
0	0	0	0	0	409
1	0	0	0	0	663
2	0	0	0	0	414
3	0	0	0	0	659
4	0	0	0	0	417
5	0	0	0	0	658
6	0	0	0	0	414
7	0	0	0	0	661
8	0	0	0	0	407
9	0	0	0	0	661
10	0	0	0	0	415
11	0	0	0	0	660
12	0	0	0	0	406
13	0	0	0	0	661
14	0	0	0	0	415
15	0	0	0	0	662
0	0	0	0	0	408
1	0	0	0	0	662
2	0	0	0	0	407
3	0	0	0	0	660
4	0	0	0	0	414
5	0	0	0	0	650
6	0	0	0	0	413
7	0	0	0	0	665
8	0	0	0	0	413
9	0	0	0	0	655
10	0	0	0	0	413
11	0	0	0	0	656
12	0	0	0	0	406
13	0	0	0	0	657
14	0	0	0	0	418
15	0	0	0	0	653
0	0	0	0	0	411
1	0	0	0	0	655
2	0	0	0	0	412
3	0	0	0	0	662
4	0	0	0	0	409
5	0	0	0	0	654
6	0	0	0	0	408
7	0	0	0	0	659
8	0	0	0	0	408
9	0	0	0	0	660
10	0	0	0	0	409
11	0	0	0	0	656
12	0	0	0	0	408
13	0	0	0	0	654
14	0	0	0	0	408
15	0	0	0	0	653
0	0	0	0	0	410
1	0	0	0	0	660
2	0	0	0	0	412
3	0	0	0	0	661
4	0	0	0	0	409
5	0	0	0	0	656
6	0	0	0	0	411
7	0	0	0	0	665
8	0	0	0	0	417
9	0	0	0	0	655
10	0	0	0	0	414
11	0	0	0	0	662
12	0	0	0	0	409
13	0	0	0	0	659
14	0	0	0	0	408
15	0	0	0	0	659
0	0	0	0	0	412
1	0	0	0	0	657
2	0	0	0	0	410
3	0	0	0	0	649
4	0	0	0	0	420
5	0	0	0	0	658
6	0	0	0	0	411
7	0	0	0	0	663
8	0	0	0	0	409
9	0	0	0	0	658
10	0	0	0	0	415
11	0	0	0	0	655
12	0	0	0	0	409
13	0	0	0	0	663
14	0	0	0	0	409
15	0	0	0	0	657
0	0	0	0	0	403
1	0	0	0	0	660
2	0	0	0	0	412
3	0	0	0	0	657
4	0	0	0	0	410
5	0	0	0	0	656
6	0	0	0	0	411
7	0	0	0	0	661
8	0	0	0	0	414
9	0	0	0	0	658
10	0	0	0	0	415
11	0	0	0	0	662
12	0	0	0	0	405
13	0	0	0	0	664
14	0	0	0	0	399
15	0	0	0	0	660
0	0	0	0	0	413
1	0	0	0	0	654
2	0	0	0	0	416
3	0	0	0	0	657
4	0	0	0	0	419
5	0	0	0	0	666
6	0	0	0	0	411
7	0	0	0	0	654
8	0	0	0	0	409
9	0	0	0	0	659
10	0	0	0	0	411
11	0	0	0	0	654
12	0	0	0	0	410
13	0	0	0	0	655
14	0	0	0	0	415
15	0	0	0	0	657
0	0	0	0	0	417
1	0	0	0	0	657
2	0	0	0	0	415
3	0	0	0	0	662
4	0	0	0	0	413
5	0	0	0	0	665
6	0	0	0	0	410
7	0	0	0	0	657
8	0	0	0	0	405
9	0	0	0	0	660
10	0	0	0	0	414
11	0	0	0	0	656
12	0	0	0	0	401
13	0	0	0	0	663
14	0	0	0	0	405
15	0	0	0	0	661
0	0	0	0	0	409
1	0	0	0	0	662
2	0	0	0	0	410
3	0	0	0	0	663
4	0	0	0	0	409
5	0	0	0	0	658
6	0	0	0	0	407
7	0	0	0	0	664
8	0	0	0	0	406
9	0	0	0	0	665
10	0	0	0	0	409
11	0	0	0	0	669
12	0	0	0	0	408
13	0	0	0	0	666
14	0	0	0	0	406
15	0	0	0	0	661
0	0	0	0	0	405
1	0	0	0	0	668
2	0	0	0	0	400
3	0	0	0	0	664
4	0	0	0	0	410
5	0	0	0	0	658
6	0	0	0	0	411
7	0	0	0	0	664
8	0	0	0	0	404
9	0	0	0	0	660
10	0	0	0	0	404
11	0	0	0	0	670
12	0	0	0	0	399
13	0	0	0	0	663
14	0	0	0	0	404
15	0	0	0	0	662
0	0	0	0	0	404
1	0	0	0	0	667
2	0	0	0	0	405
3	0	0	0	0	673
4	0	0	0	0	399
5	0	0	0	0	666
6	0	0	0	0	407
7	0	0	0	0	664
8	0	0	0	0	405
9	0	0	0	0	662
10	0	0	0	0	408
11	0	0	0	0	662
12	0	0	0	0	403
13	0	0	0	0	666
14	0	0	0	0	400
15	0	0	0	0	659
0	0	0	0	0	399
1	0	0	0	0	660
2	0	0	0	0	406
3	0	0	0	0	662
4	0	0	0	0	405
5	0	0	0	0	662
6	0	0	0	0	402
7	0	0	0	0	666
8	0	0	0	0	406
9	0	0	0	0	658
10	0	0	0	0	404
11	0	0	0	0	665
12	0	0	0	0	403
13	0	0	0	0	668
14	0	0	0	0	412
15	0	0	0	0	665
0	0	0	0	0	402
1	0	0	0	0	665
2	0	0	0	0	411
3	0	0	0	0	663
4	0	0	0	0	413
5	0	0	0	0	666
6	0	0	0	0	404
7	0	0	0	0	664
8	0	0	0	0	410
9	0	0	0	0	664
10	0	0	0	0	399
11	0	0	0	0	658
12	0	0	0	0	403
13	0	0	0	0	660
14	0	0	0	0	407
15	0	0	0	0	664
0	0	0	0	0	408
1	0	0	0	0	654
2	0	0	0	0	413
3	0	0	0	0	657
4	0	0	0	0	413
5	0	0	0	0	662
6	0	0	0	0	417
7	0	0	0	0	664
8	0	0	0	0	409
9	0	0	0	0	667
10	0	0	0	0	400
11	0	0	0	0	662
12	0	0	0	0	414
13	0	0	0	0	657
14	0	0	0	0	410
15	0	0	0	0	659
0	0	0	0	0	405
1	0	0	0	0	663
2	0	0	0	0	407
3	0	0	0	0	665
4	0	0	0	0	406
5	0	0	0	0	662
6	0	0	0	0	410
7	0	0	0	0	663
8	0	0	0	0	404
9	0	0	0	0	663
10	0	0	0	0	405
11	0	0	0	0	662
12	0	0	0	0	408
13	0	0	0	0	669
14	0	0	0	0	399
15	0	0	0	0	666
0	0	0	0	0	395
1	0	0	0	0	668
2	0	0	0	0	399
3	0	0	0	0	670
4	0	0	0	0	392
5	0	0	0	0	663
6	0	0	0	0	399
7	0	0	0	0	673
8	0	0	0	0	397
9	0	0	0	0	668
10	0	0	0	0	402
11	0	0	0	0	676
12	0	0	0	0	398
13	0	0	0	0	662
14	0	0	0	0	399
15	0	0	0	0	667
0	0	0	0	0	397
1	0	0	0	0	668
2	0	0	0	0	397
3	0	0	0	0	669
4	0	0	0	0	397
5	0	0	0	0	665
6	0	0	0	0	401
7	0	0	0	0	671
8	0	0	0	0	391
9	0	0	0	0	672
10	0	0	0	0	402
11	0	0	0	0	668
12	0	0	0	0	398
13	0	0	0	0	674
14	0	0	0	0	401
15	0	0	0	0	671
0	0	0	0	0	401
1	0	0	0	0	662
2	0	0	0	0	401
3	0	0	0	0	663
4	0	0	0	0	396
5	0	0	0	0	669
6	0	0	0	0	401
7	0	0	0	0	673
8	0	0	0	0	397
9	0	0	0	0	661
10	0	0	0	0	395
11	0	0	0	0	667
12	0	0	0	0	396
13	0	0	0	0	672
14	0	0	0	0	402
15	0	0	0	0	669
0	0	0	0	0	390
1	0	0	0	0	670
2	0	0	0	0	401
3	0	0	0	0	665
4	0	0	0	0	405
5	0	0	0	0	667
6	0	0	0	0	399
7	0	0	0	0	664
8	0	0	0	0	396
9	0	0	0	0	669
10	0	0	0	0	397
11	0	0	0	0	671
12	0	0	0	0	395
13	0	0	0	0	671
14	0	0	0	0	399
15	0	0	0	0	669
0	0	0	0	0	401
1	0	0	0	0	662
2	0	0	0	0	395
3	0	0	0	0	677
4	0	0	0	0	399
5	0	0	0	0	666
6	0	0	0	0	398
7	0	0	0	0	670
8	0	0	0	0	401
9	0	0	0	0	665
10	0	0	0	0	387
11	0	0	0	0	674
12	0	0	0	0	387
13	0	0	0	0	668
14	0	0	0	0	394
15	0	0	0	0	665
0	0	0	0	0	395
1	0	0	0	0	678
2	0	0	0	0	401
3	0	0	0	0	667
4	0	0	0	0	398
5	0	0	0	0	666
6	0	0	0	0	389
7	0	0	0	0	667
8	0	0	0	0	396
9	0	0	0	0	673
10	0	0	0	0	402
11	0	0	0	0	672
12	0	0	0	0	395
13	0	0	0	0	669
14	0	0	0	0	393
15	0	0	0	0	667
0	0	0	0	0	392
1	0	0	0	0	668
2	0	0	0	0	394
3	0	0	0	0	670
4	0	0	0	0	394
5	0	0	0	0	671
6	0	0	0	0	391
7	0	0	0	0	665
8	0	0	0	0	395
9	0	0	0	0	673
10	0	0	0	0	399
11	0	0	0	0	666
12	0	0	0	0	398
13	0	0	0	0	665
14	0	0	0	0	397
15	0	0	0	0	671
0	0	0	0	0	396
1	0	0	0	0	665
2	0	0	0	0	397
3	0	0	0	0	676
4	0	0	0	0	388
5	0	0	0	0	676
6	0	0	0	0	396
7	0	0	0	0	676
8	0	0	0	0	398
9	0	0	0	0	669
10	0	0	0	0	393
11	0	0	0	0	671
12	0	0	0	0	392
13	0	0	0	0	673
14	0	0	0	0	400
15	0	0	0	0	669
0	0	0	0	0	391
1	0	0	0	0	667
2	0	0	0	0	396
3	0	0	0	0	668
4	0	0	0	0	398
5	0	0	0	0	669
6	0	0	0	0	401
7	0	0	0	0	669
8	0	0	0	0	400
9	0	0	0	0	676
10	0	0	0	0	391
11	0	0	0	0	676
12	0	0	0	0	401
13	0	0	0	0	672
14	0	0	0	0	398
15	0	0	0	0	668
0	0	0	0	0	400
1	0	0	0	0	675
2	0	0	0	0	398
3	0	0	0	0	673
4	0	0	0	0	400
5	0	0	0	0	669
6	0	0	0	0	387
7	0	0	0	0	667
8	0	0	0	0	397
9	0	0	0	0	676
10	0	0	0	0	395
11	0	0	0	0	675
12	0	0	0	0	392
13	0	0	0	0	669
14	0	0	0	0	396
15	0	0	0	0	667
0	0	0	0	0	394
1	0	0	0	0	670
2	0	0	0	0	398
3	0	0	0	0	675
4	0	0	0	0	393
5	0	0	0	0	668
6	0	0	0	0	391
7	0	0	0	0	677
8	0	0	0	0	399
9	0	0	0	0	674
10	0	0	0	0	394
11	0	0	0	0	666
12	0	0	0	0	397
13	0	0	0	0	672
14	0	0	0	0	395
15	0	0	0	0	676
0	0	0	0	0	396
1	0	0	0	0	672
2	0	0	0	0	397
3	0	0	0	0	670
4	0	0	0	0	395
5	0	0	0	0	671
6	0	0	0	0	393
7	0	0	0	0	672
8	0	0	0	0	397
9	0	0	0	0	681
10	0	0	0	0	399
11	0	0	0	0	667
12	0	0	0	0	389
13	0	0	0	0	673
14	0	0	0	0	396
15	0	0	0	0	669
0	0	0	0	0	397
1	0	0	0	0	668
2	0	0	0	0	396
3	0	0	0	0	671
4	0	0	0	0	389
5	0	0	0	0	670
6	0	0	0	0	397
7	0	0	0	0	676
8	0	0	0	0	388
9	0	0	0	0	675
10	0	0	0	0	395
11	0	0	0	0	663
12	0	0	0	0	393
13	0	0	0	0	673
14	0	0	0	0	393
15	0	0	0	0	672
0	0	0	0	0	394
1	0	0	0	0	669
2	0	0	0	0	391
3	0	0	0	0	668
4	0	0	0	0	402
5	0	0	0	0	669
6	0	0	0	0	405
7	0	0	0	0	663
8	0	0	0	0	399
9	0	0	0	0	668
10	0	0	0	0	397
11	0	0	0	0	671
12	0	0	0	0	398
13	0	0	0	0	674
14	0	0	0	0	401
15	0	0	0	0	668
0	0	0	0	0	397
1	0	0	0	0	668
2	0	0	0	0	393
3	0	0	0	0	667
4	0	0	0	0	387
5	0	0	0	0	669
6	0	0	0	0	391
7	0	0	0	0	671
8	0	0	0	0	397
9	0	0	0	0	670
10	0	0	0	0	393
11	0	0	0	0	675
12	0	0	0	0	400
13	0	0	0	0	672
14	0	0	0	0	396
15	0	0	0	0	670
0	0	0	0	0	400
1	0	0	0	0	675
2	0	0	0	0	401
3	0	0	0	0	669
4	0	0	0	0	393
5	0	0	0	0	669
6	0	0	0	0	394
7	0	0	0	0	673
8	0	0	0	0	405
9	0	0	0	0	673
10	0	0	0	0	398
11	0	0	0	0	669
12	0	0	0	0	394
13	0	0	0	0	676
14	0	0	0	0	393
15	0	0	0	0	668
0	0	0	0	0	398
1	0	0	0	0	669
2	0	0	0	0	398
3	0	0	0	0	669
4	0	0	0	0	393
5	0	0	0	0	676
6	0	0	0	0	394
7	0	0	0	0	666
8	0	0	0	0	395
9	0	0	0	0	667
10	0	0	0	0	397
11	0	0	0	0	673
12	0	0	0	0	401
13	0	0	0	0	674
14	0	0	0	0	406
15	0	0	0	0	669
0	0	0	0	0	402
1	0	0	0	0	673
2	0	0	0	0	396
3	0	0	0	0	670
4	0	0	0	0	396
5	0	0	0	0	667
6	0	0	0	0	401
7	0	0	0	0	662
8	0	0	0	0	396
9	0	0	0	0	666
10	0	0	0	0	400
11	0	0	0	0	666
12	0	0	0	0	398
13	0	0	0	0	665
14	0	0	0	0	395
15	0	0	0	0	668
0	0	0	0	0	394
1	0	0	0	0	665
2	0	0	0	0	402
3	0	0	0	0	671
4	0	0	0	0	397
5	0	0	0	0	669
6	0	0	0	0	397
7	0	0	0	0	662
8	0	0	0	0	398
9	0	0	0	0	669
10	0	0	0	0	398
11	0	0	0	0	670
12	0	0	0	0	399
13	0	0	0	0	670
14	0	0	0	0	399
15	0	0	0	0	666
0	0	0	0	0	398
1	0	0	0	0	668
2	0	0	0	0	402
3	0	0	0	0	673
4	0	0	0	0	397
5	0	0	0	0	662
6	0	0	0	0	394
7	0	0	0	0	672
8	0	0	0	0	398
9	0	0	0	0	666
10	0	0	0	0	396
11	0	0	0	0	674
12	0	0	0	0	398
13	0	0	0	0	674
14	0	0	0	0	401
15	0	0	0	0	664
0	0	0	0	0	399
1	0	0	0	0	665
2	0	0	0	0	404
3	0	0	0	0	665
4	0	0	0	0	397
5	0	0	0	0	667
6	0	0	0	0	400
7	0	0	0	0	668
8	0	0	0	0	399
9	0	0	0	0	669
10	0	0	0	0	400
11	0	0	0	0	672
12	0	0	0	0	396
13	0	0	0	0	665
14	0	0	0	0	402
15	0	0	0	0	667
0	0	0	0	0	397
1	0	0	0	0	668
2	0	0	0	0	398
3	0	0	0	0	669
4	0	0	0	0	398
5	0	0	0	0	667
6	0	0	0	0	394
7	0	0	0	0	668
8	0	0	0	0	394
9	0	0	0	0	666
10	0	0	0	0	397
11	0	0	0	0	673
12	0	0	0	0	398
13	0	0	0	0	674
14	0	0	0	0	399
15	0	0	0	0	672
0	0	0	0	0	401
1	0	0	0	0	662
2	0	0	0	0	406
3	0	0	0	0	666
4	0	0	0	0	404
5	0	0	0	0	672
6	0	0	0	0	398
7	0	0	0	0	666
8	0	0	0	0	402
9	0	0	0	0	667
10	0	0	0	0	401
11	0	0	0	0	666
12	0	0	0	0	398
13	0	0	0	0	665
14	0	0	0	0	401
15	0	0	0	0	670
0	0	0	0	0	402
1	0	0	0	0	672
2	0	0	0	0	401
3	0	0	0	0	664
4	0	0	0	0	398
5	0	0	0	0	669
6	0	0	0	0	402
7	0	0	0	0	667
8	0	0	0	0	399
9	0	0	0	0	660
10	0	0	0	0	403
11	0	0	0	0	663
12	0	0	0	0	398
13	0	0	0	0	668
14	0	0	0	0	403
15	0	0	0	0	670
0	0	0	0	0	394
1	0	0	0	0	659
2	0	0	0	0	398
3	0	0	0	0	665
4	0	0	0	0	396
5	0	0	0	0	666
6	0	0	0	0	399
7	0	0	0	0	662
8	0	0	0	0	401
9	0	0	0	0	669
10	0	0	0	0	399
11	0	0	0	0	672
12	0	0	0	0	397
13	0	0	0	0	662
14	0	0	0	0	403
15	0	0	0	0	662
0	0	0	0	0	401
1	0	0	0	0	664
2	0	0	0	0	397
3	0	0	0	0	671
4	0	0	0	0	390
5	0	0	0	0	665
6	0	0	0	0	401
7	0	0	0	0	667
8	0	0	0	0	399
9	0	0	0	0	670
10	0	0	0	0	397
11	0	0	0	0	662
12	0	0	0	0	406
13	0	0	0	0	661
14	0	0	0	0	398
15	0	0	0	0	669
0	0	0	0	0	403
1	0	0	0	0	661
2	0	0	0	0	405
3	0	0	0	0	662
4	0	0	0	0	402
5	0	0	0	0	672
6	0	0	0	0	402
7	0	0	0	0	663
8	0	0	0	0	401
9	0	0	0	0	662
10	0	0	0	0	399
11	0	0	0	0	669
12	0	0	0	0	402
13	0	0	0	0	663
14	0	0	0	0	406
15	0	0	0	0	663
0	0	0	0	0	396
1	0	0	0	0	670
2	0	0	0	0	401
3	0	0	0	0	666
4	0	0	0	0	401
5	0	0	0	0	669
6	0	0	0	0	406
7	0	0	0	0	666
8	0	0	0	0	400
9	0	0	0	0	669
10	0	0	0	0	398
11	0	0	0	0	670
12	0	0	0	0	397
13	0	0	0	0	661
14	0	0	0	0	407
15	0	0	0	0	664
0	0	0	0	0	405
1	0	0	0	0	672
2	0	0	0	0	395
3	0	0	0	0	664
4	0	0	0	0	399
5	0	0	0	0	671
6	0	0	0	0	398
7	0	0	0	0	672
8	0	0	0	0	401
9	0	0	0	0	671
10	0	0	0	0	404
11	0	0	0	0	665
12	0	0	0	0	401
13	0	0	0	0	666
14	0	0	0	0	400
15	0	0	0	0	674
0	0	0	0	0	397
1	0	0	0	0	666
2	0	0	0	0	400
3	0	0	0	0	666
4	0	0	0	0	399
5	0	0	0	0	666
6	0	0	0	0	398
7	0	0	0	0	666
8	0	0	0	0	393
9	0	0	0	0	672
10	0	0	0	0	396
11	0	0	0	0	673
12	0	0	0	0	398
13	0	0	0	0	671
14	0	0	0	0	397
15	0	0	0	0	673
0	0	0	0	0	392
1	0	0	0	0	663
2	0	0	0	0	393
3	0	0	0	0	670
4	0	0	0	0	405
5	0	0	0	0	666
6	0	0	0	0	400
7	0	0	0	0	674
8	0	0	0	0	402
9	0	0	0	0	666
10	0	0	0	0	399
11	0	0	0	0	670
12	0	0	0	0	401
13	0	0	0	0	669
14	0	0	0	0	397
15	0	0	0	0	673
0	0	0	0	0	398
1	0	0	0	0	670
2	0	0	0	0	397
3	0	0	0	0	677
4	0	0	0	0	401
5	0	0	0	0	672
6	0	0	0	0	401
7	0	0	0	0	676
8	0	0	0	0	400
9	0	0	0	0	676
10	0	0	0	0	395
11	0	0	0	0	668
12	0	0	0	0	393
13	0	0	0	0	676
14	0	0	0	0	396
15	0	0	0	0	667
0	0	0	0	0	397
1	0	0	0	0	674
2	0	0	0	0	396
3	0	0	0	0	667
4	0	0	0	0	393
5	0	0	0	0	676
6	0	0	0	0	396
7	0	0	0	0	672
8	0	0	0	0	396
9	0	0	0	0	672
10	0	0	0	0	391
11	0	0	0	0	675
12	0	0	0	0	392
13	0	0	0	0	668
14	0	0	0	0	399
15	0	0	0	0	667
0	0	0	0	0	395
1	0	0	0	0	670
2	0	0	0	0	398
3	0	0	0	0	673
4	0	0	0	0	402
5	0	0	0	0	678
6	0	0	0	0	394
7	0	0	0	0	674
8	0	0	0	0	399
9	0	0	0	0	674
10	0	0	0	0	401
11	0	0	0	0	670
12	0	0	0	0	391
13	0	0	0	0	674
14	0	0	0	0	388
15	0	0	0	0	670
0	0	0	0	0	397
1	0	0	0	0	670
2	0	0	0	0	397
3	0	0	0	0	666
4	0	0	0	0	391
5	0	0	0	0	668
6	0	0	0	0	387
7	0	0	0	0	669
8	0	0	0	0	390
9	0	0	0	0	671
10	0	0	0	0	396
11	0	0	0	0	670
12	0	0	0	0	405
13	0	0	0	0	665
14	0	0	0	0	396
15	0	0	0	0	675
0	0	0	0	0	391
1	0	0	0	0	670
2	0	0	0	0	398
3	0	0	0	0	668
4	0	0	0	0	392
5	0	0	0	0	676
6	0	0	0	0	400
7	0	0	0	0	669
8	0	0	0	0	391
9	0	0	0	0	673
10	0	0	0	0	398
11	0	0	0	0	670
12	0	0	0	0	388
13	0	0	0	0	677
14	0	0	0	0	398
15	0	0	0	0	677
0	0	0	0	0	388
1	0	0	0	0	673
2	0	0	0	0	390
3	0	0	0	0	669
4	0	0	0	0	397
5	0	0	0	0	673
6	0	0	0	0	400
7	0	0	0	0	669
8	0	0	0	0	392
9	0	0	0	0	671
10	0	0	0	0	391
11	0	0	0	0	669
12	0	0	0	0	389
13	0	0	0	0	674
14	0	0	0	0	391
15	0	0	0	0	679
0	0	0	0	0	397
1	0	0	0	0	666
2	0	0	0	0	389
3	0	0	0	0	673
4	0	0	0	0	400
5	0	0	0	0	666
6	0	0	0	0	393
7	0	0	0	0	675
8	0	0	0	0	388
9	0	0	0	0	668
10	0	0	0	0	388
11	0	0	0	0	678
12	0	0	0	0	397
13	0	0	0	0	667
14	0	0	0	0	397
15	0	0	0	0	677
0	0	0	0	0	389
1	0	0	0	0	677
2	0	0	0	0	400
3	0	0	0	0	672
4	0	0	0	0	399
5	0	0	0	0	666
6	0	0	0	0	389
7	0	0	0	0	676
8	0	0	0	0	383
9	0	0	0	0	673
10	0	0	0	0	397
11	0	0	0	0	676
12	0	0	0	0	392
13	0	0	0	0	673
14	0	0	0	0	385
15	0	0	0	0	675
0	0	0	0	0	391
1	0	0	0	0	676
2	0	0	0	0	398
3	0	0	0	0	677
4	0	0	0	0	394
5	0	0	0	0	678
6	0	0	0	0	385
7	0	0	0	0	677
8	0	0	0	0	391
9	0	0	0	0	671
10	0	0	0	0	384
11	0	0	0	0	677
12	0	0	0	0	393
13	0	0	0	0	673
14	0	0	0	0	384
15	0	0	0	0	671
0	0	0	0	0	382
1	0	0	0	0	673
2	0	0	0	0	391
3	0	0	0	0	670
4	0	0	0	0	393
5	0	0	0	0	668
6	0	0	0	0	388
7	0	0	0	0	675
8	0	0	0	0	395
9	0	0	0	0	677
10	0	0	0	0	391
11	0	0	0	0	671
12	0	0	0	0	385
13	0	0	0	0	682
14	0	0	0	0	387
15	0	0	0	0	675
0	0	0	0	0	385
1	0	0	0	0	673
2	0	0	0	0	393
3	0	0	0	0	675
4	0	0	0	0	391
5	0	0	0	0	672
6	0	0	0	0	389
7	0	0	0	0	674
8	0	0	0	0	387
9	0	0	0	0	677
10	0	0	0	0	382
11	0	0	0	0	665
12	0	0	0	0	391
13	0	0	0	0	675
14	0	0	0	0	389
15	0	0	0	0	674
0	0	0	0	0	394
1	0	0	0	0	681
2	0	0	0	0	390
3	0	0	0	0	681
4	0	0	0	0	391
5	0	0	0	0	670
6	0	0	0	0	391
7	0	0	0	0	671
8	0	0	0	0	384
9	0	0	0	0	678
10	0	0	0	0	391
11	0	0	0	0	664
12	0	0	0	0	389
13	0	0	0	0	670
14	0	0	0	0	388
15	0	0	0	0	672
0	0	0	0	0	392
1	0	0	0	0	680
2	0	0	0	0	384
3	0	0	0	0	669
4	0	0	0	0	383
5	0	0	0	0	675
6	0	0	0	0	384
7	0	0	0	0	676
8	0	0	0	0	390
9	0	0	0	0	680
10	0	0	0	0	389
11	0	0	0	0	675
12	0	0	0	0	399
13	0	0	0	0	679
14	0	0	0	0	385
15	0	0	0	0	668
0	0	0	0	0	395
1	0	0	0	0	675
2	0	0	0	0	384
3	0	0	0	0	680
4	0	0	0	0	385
5	0	0	0	0	671
6	0	0	0	0	388
7	0	0	0	0	679
8	0	0	0	0	393
9	0	0	0	0	673
10	0	0	0	0	384
11	0	0	0	0	673
12	0	0	0	0	383
13	0	0	0	0	680
14	0	0	0	0	390
15	0	0	0	0	677
0	0	0	0	0	389
1	0	0	0	0	673
2	0	0	0	0	390
3	0	0	0	0	675
4	0	0	0	0	394
5	0	0	0	0	672
6	0	0	0	0	389
7	0	0	0	0	678
8	0	0	0	0	382
9	0	0	0	0	675
10	0	0	0	0	382
11	0	0	0	0	674
12	0	0	0	0	391
13	0	0	0	0	670
14	0	0	0	0	390
15	0	0	0	0	677
0	0	0	0	0	388
1	0	0	0	0	681
2	0	0	0	0	392
3	0	0	0	0	677
4	0	0	0	0	387
5	0	0	0	0	677
6	0	0	0	0	385
7	0	0	0	0	674
8	0	0	0	0	389
9	0	0	0	0	674
10	0	0	0	0	389
11	0	0	0	0	677
12	0	0	0	0	391
13	0	0	0	0	678
14	0	0	0	0	389
15	0	0	0	0	683
0	0	0	0	0	385
1	0	0	0	0	671
2	0	0	0	0	394
3	0	0	0	0	678
4	0	0	0	0	385
5	0	0	0	0	672
6	0	0	0	0	381
7	0	0	0	0	675
8	0	0	0	0	391
9	0	0	0	0	679
10	0	0	0	0	394
11	0	0	0	0	674
12	0	0	0	0	386
13	0	0	0	0	675
14	0	0	0	0	384
15	0	0	0	0	679
0	0	0	0	0	391
1	0	0	0	0	677
2	0	0	0	0	388
3	0	0	0	0	684
4	0	0	0	0	382
5	0	0	0	0	674
6	0	0	0	0	391
7	0	0	0	0	665
8	0	0	0	0	384
9	0	0	0	0	669
10	0	0	0	0	393
11	0	0	0	0	676
12	0	0	0	0	383
13	0	0	0	0	683
14	0	0	0	0	399
15	0	0	0	0	677
0	0	0	0	0	394
1	0	0	0	0	674
2	0	0	0	0	389
3	0	0	0	0	675
4	0	0	0	0	391
5	0	0	0	0	685
6	0	0	0	0	380
7	0	0	0	0	671
8	0	0	0	0	379
9	0	0	0	0	672
10	0	0	0	0	387
11	0	0	0	0	673
12	0	0	0	0	383
13	0	0	0	0	674
14	0	0	0	0	393
15	0	0	0	0	677
0	0	0	0	0	385
1	0	0	0	0	679
2	0	0	0	0	390
3	0	0	0	0	674
4	0	0	0	0	388
5	0	0	0	0	671
6	0	0	0	0	387
7	0	0	0	0	670
8	0	0	0	0	387
9	0	0	0	0	676
10	0	0	0	0	382
11	0	0	0	0	676
12	0	0	0	0	389
13	0	0	0	0	677
14	0	0	0	0	390
15	0	0	0	0	669
0	0	0	0	0	394
1	0	0	0	0	670
2	0	0	0	0	381
3	0	0	0	0	671
4	0	0	0	0	385
5	0	0	0	0	675
6	0	0	0	0	393
7	0	0	0	0	667
8	0	0	0	0	385
9	0	0	0	0	670
10	0	0	0	0	385
11	0	0	0	0	676
12	0	0	0	0	382
13	0	0	0	0	679
14	0	0	0	0	391
15	0	0	0	0	669
0	0	0	0	0	392
1	0	0	0	0	679
2	0	0	0	0	394
3	0	0	0	0	669
4	0	0	0	0	388
5	0	0	0	0	671
6	0	0	0	0	389
7	0	0	0	0	674
8	0	0	0	0	388
9	0	0	0	0	670
10	0	0	0	0	389
11	0	0	0	0	679
12	0	0	0	0	387
13	0	0	0	0	674
14	0	0	0	0	379
15	0	0	0	0	669
0	0	0	0	0	392
1	0	0	0	0	674
2	0	0	0	0	389
3	0	0	0	0	676
4	0	0	0	0	389
5	0	0	0	0	676
6	0	0	0	0	399
7	0	0	0	0	679
8	0	0	0	0	382
9	0	0	0	0	673
10	0	0	0	0	386
11	0	0	0	0	677
12	0	0	0	0	382
13	0	0	0	0	668
14	0	0	0	0	389
15	0	0	0	0	675
0	0	0	0	0	386
1	0	0	0	0	674
2	0	0	0	0	394
3	0	0	0	0	674
4	0	0	0	0	388
5	0	0	0	0	675
6	0	0	0	0	389
7	0	0	0	0	677
8	0	0	0	0	389
9	0	0	0	0	674
10	0	0	0	0	390
11	0	0	0	0	677
12	0	0	0	0	379
13	0	0	0	0	679
14	0	0	0	0	395
15	0	0	0	0	675
0	0	0	0	0	385
1	0	0	0	0	678
2	0	0	0	0	389
3	0	0	0	0	669
4	0	0	0	0	393
5	0	0	0	0	673
6	0	0	0	0	390
7	0	0	0	0	681
8	0	0	0	0	389
9	0	0	0	0	670
10	0	0	0	0	383
11	0	0	0	0	677
12	0	0	0	0	392
13	0	0	0	0	676
14	0	0	0	0	381
15	0	0	0	0	676
0	0	0	0	0	385
1	0	0	0	0	680
2	0	0	0	0	389
3	0	0	0	0	675
4	0	0	0	0	380
5	0	0	0	0	676
6	0	0	0	0	393
7	0	0	0	0	666
8	0	0	0	0	385
9	0	0	0	0	674
10	0	0	0	0	388
11	0	0	0	0	671
12	0	0	0	0	385
13	0	0	0	0	671
14	0	0	0	0	387
15	0	0	0	0	673
0	0	0	0	0	384
1	0	0	0	0	675
2	0	0	0	0	381
3	0	0	0	0	681
4	0	0	0	0	385
5	0	0	0	0	677
6	0	0	0	0	392
7	0	0	0	0	669
8	0	0	0	0	382
9	0	0	0	0	679
10	0	0	0	0	388
11	0	0	0	0	674
12	0	0	0	0	388
13	0	0	0	0	674
14	0	0	0	0	387
15	0	0	0	0	673
0	0	0	0	0	386
1	0	0	0	0	680
2	0	0	0	0	384
3	0	0	0	0	677
4	0	0	0	0	380
5	0	0	0	0	680
6	0	0	0	0	388
7	0	0	0	0	675
8	0	0	0	0	387
9	0	0	0	0	676
10	0	0	0	0	391
11	0	0	0	0	678
12	0	0	0	0	385
13	0	0	0	0	675
14	0	0	0	0	385
15	0	0	0	0	678
0	0	0	0	0	385
1	0	0	0	0	678
2	0	0	0	0	388
3	0	0	0	0	670
4	0	0	0	0	381
5	0	0	0	0	673
6	0	0	0	0	392
7	0	0	0	0	677
8	0	0	0	0	380
9	0	0	0	0	681
10	0	0	0	0	393
11	0	0	0	0	674
12	0	0	0	0	382
13	0	0	0	0	669
14	0	0	0	0	383
15	0	0	0	0	673
0	0	0	0	0	386
1	0	0	0	0	676
2	0	0	0	0	385
3	0	0	0	0	675
4	0	0	0	0	384
5	0	0	0	0	675
6	0	0	0	0	387
7	0	0	0	0	680
8	0	0	0	0	392
9	0	0	0	0	673
10	0	0	0	0	385
11	0	0	0	0	674
12	0	0	0	0	383
13	0	0	0	0	670
14	0	0	0	0	388
15	0	0	0	0	673
0	0	0	0	0	389
1	0	0	0	0	678
2	0	0	0	0	388
3	0	0	0	0	674
4	0	0	0	0	391
5	0	0	0	0	672
6	0	0	0	0	386
7	0	0	0	0	673
8	0	0	0	0	387
9	0	0	0	0	675
10	0	0	0	0	389
11	0	0	0	0	673
12	0	0	0	0	391
13	0	0	0	0	677
14	0	0	0	0	394
15	0	0	0	0	669
0	0	0	0	0	381
1	0	0	0	0	676
2	0	0	0	0	388
3	0	0	0	0	679
4	0	0	0	0	391
5	0	0	0	0	673
6	0	0	0	0	381
7	0	0	0	0	678
8	0	0	0	0	384
9	0	0	0	0	669
10	0	0	0	0	385
11	0	0	0	0	677
12	0	0	0	0	394
13	0	0	0	0	669
14	0	0	0	0	389
15	0	0	0	0	673
0	0	0	0	0	383
1	0	0	0	0	673
2	0	0	0	0	381
3	0	0	0	0	678
4	0	0	0	0	380
5	0	0	0	0	672
6	0	0	0	0	380
7	0	0	0	0	672
8	0	0	0	0	389
9	0	0	0	0	680
10	0	0	0	0	381
11	0	0	0	0	678
12	0	0	0	0	385
13	0	0	0	0	673
14	0	0	0	0	384
15	0	0	0	0	666
0	0	0	0	0	391
1	0	0	0	0	674
2	0	0	0	0	384
3	0	0	0	0	678
4	0	0	0	0	385
5	0	0	0	0	682
6	0	0	0	0	389
7	0	0	0	0	669
8	0	0	0	0	394
9	0	0	0	0	670
10	0	0	0	0	391
11	0	0	0	0	669
12	0	0	0	0	395
13	0	0	0	0	676
14	0	0	0	0	388
15	0	0	0	0	671
0	0	0	0	0	385
1	0	0	0	0	677
2	0	0	0	0	390
3	0	0	0	0	672
4	0	0	0	0	386
5	0	0	0	0	671
6	0	0	0	0	391
7	0	0	0	0	678
8	0	0	0	0	383
9	0	0	0	0	671
10	0	0	0	0	394
11	0	0	0	0	669
12	0	0	0	0	383
13	0	0	0	0	673
14	0	0	0	0	382
15	0	0	0	0	673
0	0	0	0	0	385
1	0	0	0	0	677
2	0	0	0	0	392
3	0	0	0	0	676
4	0	0	0	0	393
5	0	0	0	0	679
6	0	0	0	0	382
7	0	0	0	0	671
8	0	0	0	0	382
9	0	0	0	0	682
10	0	0	0	0	386
11	0	0	0	0	678
12	0	0	0	0	389
13	0	0	0	0	677
14	0	0	0	0	390
15	0	0	0	0	673
0	0	0	0	0	382
1	0	0	0	0	673
2	0	0	0	0	391
3	0	0	0	0	680
4	0	0	0	0	393
5	0	0	0	0	670
6	0	0	0	0	385
7	0	0	0	0	676
8	0	0	0	0	385
9	0	0	0	0	672
10	0	0	0	0	383
11	0	0	0	0	669
12	0	0	0	0	388
13	0	0	0	0	675
14	0	0	0	0	384
15	0	0	0	0	677
0	0	0	0	0	388
1	0	0	0	0	681
2	0	0	0	0	390
3	0	0	0	0	671
4	0	0	0	0	391
5	0	0	0	0	672
6	0	0	0	0	387
7	0	0	0	0	678
8	0	0	0	0	376
9	0	0	0	0	677
10	0	0	0	0	391
11	0	0	0	0	671
12	0	0	0	0	388
13	0	0	0	0	667
14	0	0	0	0	382
15	0	0	0	0	670
0	0	0	0	0	387
1	0	0	0	0	676
2	0	0	0	0	387
3	0	0	0	0	669
4	0	0	0	0	390
5	0	0	0	0	675
6	0	0	0	0	389
7	0	0	0	0	672
8	0	0	0	0	388
9	0	0	0	0	676
10	0	0	0	0	386
11	0	0	0	0	676
12	0	0	0	0	393
13	0	0	0	0	673
14	0	0	0	0	386
15	0	0	0	0	672
0	0	0	0	0	396
1	0	0	0	0	672
2	0	0	0	0	381
3	0	0	0	0	671
4	0	0	0	0	388
5	0	0	0	0	686
6	0	0	0	0	390
7	0	0	0	0	676
8	0	0	0	0	386
9	0	0	0	0	676
10	0	0	0	0	383
11	0	0	0	0	673
12	0	0	0	0	385
13	0	0	0	0	679
14	0	0	0	0	388
15	0	0	0	0	679
0	0	0	0	0	390
1	0	0	0	0	674
2	0	0	0	0	388
3	0	0	0	0	675
4	0	0	0	0	385
5	0	0	0	0	674
6	0	0	0	0	386
7	0	0	0	0	677
8	0	0	0	0	385
9	0	0	0	0	676
10	0	0	0	0	383
11	0	0	0	0	674
12	0	0	0	0	388
13	0	0	0	0	670
14	0	0	0	0	386
15	0	0	0	0	673
0	0	0	0	0	385
1	0	0	0	0	678
2	0	0	0	0	391
3	0	0	0	0	680
4	0	0	0	0	384
5	0	0	0	0	674
6	0	0	0	0	394
7	0	0	0	0	669
8	0	0	0	0	389
9	0	0	0	0	676
10	0	0	0	0	379
11	0	0	0	0	673
12	0	0	0	0	385
13	0	0	0	0	682
14	0	0	0	0	388
15	0	0	0	0	674
0	0	0	0	0	387
1	0	0	0	0	678
2	0	0	0	0	384
3	0	0	0	0	679
4	0	0	0	0	382
5	0	0	0	0	674
6	0	0	0	0	381
7	0	0	0	0	677
8	0	0	0	0	389
9	0	0	0	0	673
10	0	0	0	0	385
11	0	0	0	0	667
12	0	0	0	0	386
13	0	0	0	0	671
14	0	0	0	0	382
15	0	0	0	0	677
0	0	0	0	0	385
1	0	0	0	0	675
2	0	0	0	0	375
3	0	0	0	0	674
4	0	0	0	0	388
5	0	0	0	0	665
6	0	0	0	0	385
7	0	0	0	0	674
8	0	0	0	0	387
9	0	0	0	0	669
10	0	0	0	0	382
11	0	0	0	0	671
12	0	0	0	0	393
13	0	0	0	0	673
14	0	0	0	0	389
15	0	0	0	0	676
0	0	0	0	0	387
1	0	0	0	0	676
2	0	0	0	0	385
3	0	0	0	0	670
4	0	0	0	0	383
5	0	0	0	0	670
6	0	0	0	0	388
7	0	0	0	0	668
8	0	0	0	0	382
9	0	0	0	0	674
10	0	0	0	0	389
11	0	0	0	0	676
12	0	0	0	0	382
13	0	0	0	0	674
14	0	0	0	0	385
15	0	0	0	0	670
0	0	0	0	0	385
1	0	0	0	0	671
2	0	0	0	0	393
3	0	0	0	0	678
4	0	0	0	0	384
5	0	0	0	0	669
6	0	0	0	0	383
7	0	0	0	0	677
8	0	0	0	0	389
9	0	0	0	0	672
10	0	0	0	0	394
11	0	0	0	0	674
12	0	0	0	0	384
13	0	0	0	0	680
14	0	0	0	0	389
15	0	0	0	0	671
0	0	0	0	0	390
1	0	0	0	0	672
2	0	0	0	0	388
3	0	0	0	0	673
4	0	0	0	0	387
5	0	0	0	0	680
6	0	0	0	0	387
7	0	0	0	0	680
8	0	0	0	0	381
9	0	0	0	0	676
10	0	0	0	0	393
11	0	0	0	0	672
12	0	0	0	0	383
13	0	0	0	0	667
14	0	0	0	0	389
15	0	0	0	0	677
0	0	0	0	0	391
1	0	0	0	0	677
2	0	0	0	0	393
3	0	0	0	0	675
4	0	0	0	0	389
5	0	0	0	0	672
6	0	0	0	0	391
7	0	0	0	0	669
8	0	0	0	0	386
9	0	0	0	0	677
10	0	0	0	0	390
11	0	0	0	0	671
12	0	0	0	0	384
13	0	0	0	0	676
14	0	0	0	0	388
15	0	0	0	0	675
0	0	0	0	0	382
1	0	0	0	0	673
2	0	0	0	0	385
3	0	0	0	0	678
4	0	0	0	0	387
5	0	0	0	0	677
6	0	0	0	0	385
7	0	0	0	0	679
8	0	0	0	0	388
9	0	0	0	0	674
10	0	0	0	0	387
11	0	0	0	0	681
12	0	0	0	0	387
13	0	0	0	0	665
14	0	0	0	0	389
15	0	0	0	0	680
0	0	0	0	0	389
1	0	0	0	0	674
2	0	0	0	0	389
3	0	0	0	0	666
4	0	0	0	0	388
5	0	0	0	0	671
6	0	0	0	0	390
7	0	0	0	0	671
8	0	0	0	0	386
9	0	0	0	0	677
10	0	0	0	0	381
11	0	0	0	0	668
12	0	0	0	0	389
13	0	0	0	0	677
14	0	0	0	0	391
15	0	0	0	0	676
0	0	0	0	0	384
1	0	0	0	0	679
2	0	0	0	0	391
3	0	0	0	0	670
4	0	0	0	0	390
5	0	0	0	0	679
6	0	0	0	0	387
7	0	0	0	0	673
8	0	0	0	0	389
9	0	0	0	0	677
10	0	0	0	0	386
11	0	0	0	0	681
12	0	0	0	0	383
13	0	0	0	0	673
14	0	0	0	0	396
15	0	0	0	0	677
0	0	0	0	0	387
1	0	0	0	0	681
2	0	0	0	0	386
3	0	0	0	0	674
4	0	0	0	0	380
5	0	0	0	0	668
6	0	0	0	0	382
7	0	0	0	0	673
8	0	0	0	0	386
9	0	0	0	0	668
10	0	0	0	0	396
11	0	0	0	0	677
12	0	0	0	0	384
13	0	0	0	0	668
14	0	0	0	0	385
15	0	0	0	0	671
0	0	0	0	0	389
1	0	0	0	0	677
2	0	0	0	0	382
3	0	0	0	0	673
4	0	0	0	0	387
5	0	0	0	0	669
6	0	0	0	0	386
7	0	0	0	0	676
8	0	0	0	0	391
9	0	0	0	0	671
10	0	0	0	0	385
11	0	0	0	0	677
12	0	0	0	0	388
13	0	0	0	0	673
14	0	0	0	0	392
15	0	0	0	0	672
0	0	0	0	0	387
1	0	0	0	0	672
2	0	0	0	0	383
3	0	0	0	0	677
4	0	0	0	0	389
5	0	0	0	0	667
6	0	0	0	0	386
7	0	0	0	0	673
8	0	0	0	0	389
9	0	0	0	0	671
10	0	0	0	0	383
11	0	0	0	0	677
12	0	0	0	0	385
13	0	0	0	0	670
14	0	0	0	0	393
15	0	0	0	0	671
0	0	0	0	0	384
1	0	0	0	0	669
2	0	0	0	0	390
3	0	0	0	0	669
4	0	0	0	0	388
5	0	0	0	0	674
6	0	0	0	0	388
7	0	0	0	0	671
8	0	0	0	0	390
9	0	0	0	0	673
10	0	0	0	0	383
11	0	0	0	0	676
12	0	0	0	0	388
13	0	0	0	0	674
14	0	0	0	0	385
15	0	0	0	0	667
0	0	0	0	0	388
1	0	0	0	0	676
2	0	0	0	0	383
3	0	0	0	0	678
4	0	0	0	0	381
5	0	0	0	0	676
6	0	0	0	0	388
7	0	0	0	0	670
8	0	0	0	0	387
9	0	0	0	0	672
10	0	0	0	0	388
11	0	0	0	0	676
12	0	0	0	0	389
13	0	0	0	0	679
14	0	0	0	0	381
15	0	0	0	0	679
0	0	0	0	0	387
1	0	0	0	0	677
2	0	0	0	0	390
3	0	0	0	0	676
4	0	0	0	0	388
5	0	0	0	0	673
6	0	0	0	0	389
7	0	0	0	0	673
8	0	0	0	0	385
9	0	0	0	0	670
10	0	0	0	0	389
11	0	0	0	0	667
12	0	0	0	0	385
13	0	0	0	0	673
14	0	0	0	0	379
15	0	0	0	0	670
0	0	0	0	0	384
1	0	0	0	0	669
2	0	0	0	0	385
3	0	0	0	0	677
4	0	0	0	0	393
5	0	0	0	0	674
6	0	0	0	0	387
7	0	0	0	0	673
8	0	0	0	0	380
9	0	0	0	0	673
10	0	0	0	0	382
11	0	0	0	0	678
12	0	0	0	0	388
13	0	0	0	0	676
14	0	0	0	0	385
15	0	0	0	0	670
0	0	0	0	0	384
1	0	0	0	0	667
2	0	0	0	0	386
3	0	0	0	0	668
4	0	0	0	0	386