# OpenSignals Text File Format. Version 1
# {"84:BA:20:5E:FF:7F": {"position": 0, "device": "bitalino_rev", "device name": "84:BA:20:5E:FF:7F", "device connection": "BTH84:BA:20:5E:FF:7F", "sampling rate": 100, "resolution": [4, 1, 1, 1, 1, 10], "firmware version": 1282, "comments": "", "keywords": "", "mode": 0, "sync interval": 2, "date": "2024-3-6", "time": "19:2:40.159", "channels": [1], "sensor": ["EMGBITREV"], "label": ["A1"], "column": ["nSeq", "I1", "I2", "O1", "O2", "A1"], "special": [{}], "digital IO": [0, 0, 1, 1]}}
# EndOfHeader
0	0	0	0	0	372
1	0	0	0	0	575
2	0	0	0	0	373
3	0	0	0	0	583
4	0	0	0	0	377
5	0	0	0	0	571
6	0	0	0	0	379
7	0	0	0	0	572
8	0	0	0	0	379
9	0	0	0	0	574
10	0	0	0	0	377
11	0	0	0	0	568
12	0	0	0	0	379
13	0	0	0	0	581
14	0	0	0	0	387
15	0	0	0	0	568
0	0	0	0	0	391
1	0	0	0	0	569
2	0	0	0	0	381
3	0	0	0	0	584
4	0	0	0	0	375
5	0	0	0	0	576
6	0	0	0	0	382
7	0	0	0	0	571
8	0	0	0	0	372
9	0	0	0	0	564
10	0	0	0	0	381
11	0	0	0	0	565
12	0	0	0	0	387
13	0	0	0	0	580
14	0	0	0	0	383
15	0	0	0	0	570
0	0	0	0	0	391
1	0	0	0	0	568
2	0	0	0	0	386
3	0	0	0	0	565
4	0	0	0	0	391
5	0	0	0	0	567
6	0	0	0	0	389
7	0	0	0	0	571
8	0	0	0	0	388
9	0	0	0	0	564
10	0	0	0	0	395
11	0	0	0	0	563
12	0	0	0	0	387
13	0	0	0	0	572
14	0	0	0	0	387
15	0	0	0	0	556
0	0	0	0	0	396
1	0	0	0	0	568
2	0	0	0	0	386
3	0	0	0	0	559
4	0	0	0	0	397
5	0	0	0	0	563
6	0	0	0	0	394
7	0	0	0	0	567
8	0	0	0	0	399
9	0	0	0	0	555
10	0	0	0	0	388
11	0	0	0	0	565
12	0	0	0	0	394
13	0	0	0	0	560
14	0	0	0	0	405
15	0	0	0	0	546
0	0	0	0	0	399
1	0	0	0	0	556
2	0	0	0	0	399
3	0	0	0	0	555
4	0	0	0	0	408
5	0	0	0	0	558
6	0	0	0	0	399
7	0	0	0	0	553
8	0	0	0	0	408
9	0	0	0	0	550
10	0	0	0	0	404
11	0	0	0	0	554
12	0	0	0	0	408
13	0	0	0	0	545
14	0	0	0	0	414
15	0	0	0	0	550
0	0	0	0	0	415
1	0	0	0	0	549
2	0	0	0	0	411
3	0	0	0	0	536
4	0	0	0	0	416
5	0	0	0	0	553
6	0	0	0	0	418
7	0	0	0	0	543
8	0	0	0	0	416
9	0	0	0	0	542
10	0	0	0	0	418
11	0	0	0	0	549
12	0	0	0	0	414
13	0	0	0	0	533
14	0	0	0	0	419
15	0	0	0	0	549
0	0	0	0	0	420
1	0	0	0	0	542
2	0	0	0	0	415
3	0	0	0	0	539
4	0	0	0	0	424
5	0	0	0	0	545
6	0	0	0	0	414
7	0	0	0	0	535
8	0	0	0	0	425
9	0	0	0	0	540
10	0	0	0	0	420
11	0	0	0	0	534
12	0	0	0	0	431
13	0	0	0	0	530
14	0	0	0	0	426
15	0	0	0	0	547
0	0	0	0	0	415
1	0	0	0	0	535
2	0	0	0	0	423
3	0	0	0	0	535
4	0	0	0	0	429
5	0	0	0	0	533
6	0	0	0	0	434
7	0	0	0	0	523
8	0	0	0	0	438
9	0	0	0	0	545
10	0	0	0	0	421
11	0	0	0	0	541
12	0	0	0	0	433
13	0	0	0	0	528
14	0	0	0	0	426
15	0	0	0	0	530
0	0	0	0	0	442
1	0	0	0	0	517
2	0	0	0	0	444
3	0	0	0	0	533
4	0	0	0	0	444
5	0	0	0	0	529
6	0	0	0	0	447
7	0	0	0	0	518
8	0	0	0	0	436
9	0	0	0	0	528
10	0	0	0	0	447
11	0	0	0	0	517
12	0	0	0	0	450
13	0	0	0	0	520
14	0	0	0	0	461
15	0	0	0	0	504
0	0	0	0	0	477
1	0	0	0	0	491
2	0	0	0	0	481
3	0	0	0	0	493
4	0	0	0	0	481
5	0	0	0	0	491
6	0	0	0	0	484
7	0	0	0	0	492
8	0	0	0	0	476
9	0	0	0	0	490
10	0	0	0	0	491
11	0	0	0	0	491
12	0	0	0	0	484
13	0	0	0	0	490
14	0	0	0	0	482
15	0	0	0	0	489
0	0	0	0	0	487
1	0	0	0	0	483
2	0	0	0	0	492
3	0	0	0	0	486
4	0	0	0	0	479
5	0	0	0	0	490
6	0	0	0	0	481
7	0	0	0	0	493
8	0	0	0	0	476
9	0	0	0	0	490
10	0	0	0	0	474
11	0	0	0	0	501
12	0	0	0	0	472
13	0	0	0	0	495
14	0	0	0	0	471
15	0	0	0	0	502
0	0	0	0	0	465
1	0	0	0	0	512
2	0	0	0	0	472
3	0	0	0	0	504
4	0	0	0	0	470
5	0	0	0	0	498
6	0	0	0	0	477
7	0	0	0	0	505
8	0	0	0	0	464
9	0	0	0	0	502
10	0	0	0	0	465
11	0	0	0	0	505
12	0	0	0	0	468
13	0	0	0	0	509
14	0	0	0	0	452
15	0	0	0	0	567
0	0	0	0	0	394
1	0	0	0	0	547
2	0	0	0	0	395
3	0	0	0	0	562
4	0	0	0	0	401
5	0	0	0	0	555
6	0	0	0	0	395
7	0	0	0	0	579
8	0	0	0	0	389
9	0	0	0	0	564
10	0	0	0	0	395
11	0	0	0	0	581
12	0	0	0	0	388
13	0	0	0	0	582
14	0	0	0	0	392
15	0	0	0	0	568
0	0	0	0	0	399
1	0	0	0	0	576
2	0	0	0	0	385
3	0	0	0	0	564
4	0	0	0	0	388
5	0	0	0	0	576
6	0	0	0	0	379
7	0	0	0	0	582
8	0	0	0	0	388
9	0	0	0	0	568
10	0	0	0	0	385
11	0	0	0	0	588
12	0	0	0	0	373
13	0	0	0	0	595
14	0	0	0	0	380
15	0	0	0	0	573
0	0	0	0	0	370
1	0	0	0	0	588
2	0	0	0	0	373
3	0	0	0	0	583
4	0	0	0	0	369
5	0	0	0	0	603
6	0	0	0	0	356
7	0	0	0	0	606
8	0	0	0	0	357
9	0	0	0	0	596
10	0	0	0	0	362
11	0	0	0	0	611
12	0	0	0	0	355
13	0	0	0	0	598
14	0	0	0	0	356
15	0	0	0	0	614
0	0	0	0	0	341
1	0	0	0	0	631
2	0	0	0	0	345
3	0	0	0	0	599
4	0	0	0	0	338
5	0	0	0	0	624
6	0	0	0	0	333
7	0	0	0	0	632
8	0	0	0	0	337
9	0	0	0	0	620
10	0	0	0	0	333
11	0	0	0	0	627
12	0	0	0	0	336
13	0	0	0	0	610
14	0	0	0	0	328
15	0	0	0	0	635
0	0	0	0	0	324
1	0	0	0	0	640
2	0	0	0	0	323
3	0	0	0	0	616
4	0	0	0	0	326
5	0	0	0	0	640
6	0	0	0	0	323
7	0	0	0	0	645
8	0	0	0	0	320
9	0	0	0	0	639
10	0	0	0	0	315
11	0	0	0	0	639
12	0	0	0	0	318
13	0	0	0	0	627
14	0	0	0	0	314
15	0	0	0	0	649
0	0	0	0	0	308
1	0	0	0	0	649
2	0	0	0	0	316
3	0	0	0	0	644
4	0	0	0	0	307
5	0	0	0	0	653
6	0	0	0	0	315
7	0	0	0	0	630
8	0	0	0	0	311
9	0	0	0	0	652
10	0	0	0	0	300
11	0	0	0	0	659
12	0	0	0	0	305
13	0	0	0	0	635
14	0	0	0	0	316
15	0	0	0	0	653
0	0	0	0	0	307
1	0	0	0	0	655
2	0	0	0	0	313
3	0	0	0	0	653
4	0	0	0	0	306
5	0	0	0	0	657
6	0	0	0	0	304
7	0	0	0	0	639
8	0	0	0	0	316
9	0	0	0	0	660
10	0	0	0	0	306
11	0	0	0	0	659
12	0	0	0	0	312
13	0	0	0	0	644
14	0	0	0	0	317
15	0	0	0	0	655
0	0	0	0	0	314
1	0	0	0	0	643
2	0	0	0	0	309
3	0	0	0	0	658
4	0	0	0	0	304
5	0	0	0	0	650
6	0	0	0	0	317
7	0	0	0	0	646
8	0	0	0	0	315
9	0	0	0	0	651
10	0	0	0	0	308
11	0	0	0	0	644
12	0	0	0	0	309
13	0	0	0	0	654
14	0	0	0	0	317
15	0	0	0	0	653
0	0	0	0	0	312
1	0	0	0	0	635
2	0	0	0	0	310
3	0	0	0	0	651
4	0	0	0	0	317
5	0	0	0	0	645
6	0	0	0	0	315
7	0	0	0	0	653
8	0	0	0	0	312
9	0	0	0	0	656
10	0	0	0	0	320
11	0	0	0	0	647
12	0	0	0	0	311
13	0	0	0	0	652
14	0	0	0	0	304
15	0	0	0	0	646
0	0	0	0	0	316
1	0	0	0	0	648
2	0	0	0	0	318
3	0	0	0	0	659
4	0	0	0	0	313
5	0	0	0	0	647
6	0	0	0	0	313
7	0	0	0	0	649
8	0	0	0	0	316
9	0	0	0	0	646
10	0	0	0	0	307
11	0	0	0	0	635
12	0	0	0	0	319
13	0	0	0	0	647
14	0	0	0	0	318
15	0	0	0	0	647
0	0	0	0	0	317
1	0	0	0	0	632
2	0	0	0	0	323
3	0	0	0	0	648
4	0	0	0	0	320
5	0	0	0	0	649
6	0	0	0	0	315
7	0	0	0	0	648
8	0	0	0	0	312
9	0	0	0	0	645
10	0	0	0	0	317
11	0	0	0	0	639
12	0	0	0	0	313
13	0	0	0	0	642
14	0	0	0	0	317
15	0	0	0	0	645
0	0	0	0	0	319
1	0	0	0	0	642
2	0	0	0	0	324
3	0	0	0	0	648
4	0	0	0	0	312
5	0	0	0	0	642
6	0	0	0	0	309
7	0	0	0	0	639
8	0	0	0	0	319
9	0	0	0	0	640
10	0	0	0	0	317
11	0	0	0	0	646
12	0	0	0	0	319
13	0	0	0	0	642
14	0	0	0	0	317
15	0	0	0	0	640
0	0	0	0	0	315
1	0	0	0	0	640
2	0	0	0	0	315
3	0	0	0	0	648
4	0	0	0	0	319
5	0	0	0	0	637
6	0	0	0	0	331
7	0	0	0	0	635
8	0	0	0	0	321
9	0	0	0	0	643
10	0	0	0	0	323
11	0	0	0	0	639
12	0	0	0	0	318
13	0	0	0	0	635
14	0	0	0	0	320
15	0	0	0	0	642
0	0	0	0	0	317
1	0	0	0	0	633
2	0	0	0	0	328
3	0	0	0	0	634
4	0	0	0	0	323
5	0	0	0	0	632
6	0	0	0	0	325
7	0	0	0	0	629
8	0	0	0	0	327
9	0	0	0	0	635
10	0	0	0	0	323
11	0	0	0	0	641
12	0	0	0	0	322
13	0	0	0	0	631
14	0	0	0	0	324
15	0	0	0	0	632
0	0	0	0	0	334
1	0	0	0	0	632
2	0	0	0	0	328
3	0	0	0	0	630
4	0	0	0	0	326
5	0	0	0	0	633
6	0	0	0	0	339
7	0	0	0	0	627
8	0	0	0	0	327
9	0	0	0	0	632
10	0	0	0	0	323
11	0	0	0	0	632
12	0	0	0	0	330
13	0	0	0	0	620
14	0	0	0	0	324
15	0	0	0	0	628
0	0	0	0	0	336
1	0	0	0	0	634
2	0	0	0	0	333
3	0	0	0	0	636
4	0	0	0	0	332
5	0	0	0	0	629
6	0	0	0	0	327
7	0	0	0	0	627
8	0	0	0	0	329
9	0	0	0	0	634
10	0	0	0	0	337
11	0	0	0	0	631
12	0	0	0	0	329
13	0	0	0	0	639
14	0	0	0	0	338
15	0	0	0	0	632
0	0	0	0	0	335
1	0	0	0	0	628
2	0	0	0	0	328
3	0	0	0	0	627
4	0	0	0	0	336
5	0	0	0	0	625
6	0	0	0	0	327
7	0	0	0	0	634
8	0	0	0	0	334
9	0	0	0	0	633
10	0	0	0	0	331
11	0	0	0	0	628
12	0	0	0	0	328
13	0	0	0	0	634
14	0	0	0	0	326
15	0	0	0	0	625
0	0	0	0	0	341
1	0	0	0	0	628
2	0	0	0	0	332
3	0	0	0	0	624
4	0	0	0	0	340
5	0	0	0	0	628
6	0	0	0	0	321
7	0	0	0	0	628
8	0	0	0	0	329
9	0	0	0	0	626
10	0	0	0	0	337
11	0	0	0	0	630
12	0	0	0	0	331
13	0	0	0	0	634
14	0	0	0	0	335
15	0	0	0	0	626
0	0	0	0	0	330
1	0	0	0	0	627
2	0	0	0	0	328
3	0	0	0	0	624
4	0	0	0	0	339
5	0	0	0	0	625
6	0	0	0	0	339
7	0	0	0	0	621
8	0	0	0	0	333
9	0	0	0	0	626
10	0	0	0	0	338
11	0	0	0	0	632
12	0	0	0	0	328
13	0	0	0	0	629
14	0	0	0	0	336
15	0	0	0	0	626
0	0	0	0	0	337
1	0	0	0	0	623
2	0	0	0	0	334
3	0	0	0	0	628
4	0	0	0	0	342
5	0	0	0	0	619
6	0	0	0	0	333
7	0	0	0	0	622
8	0	0	0	0	331
9	0	0	0	0	633
10	0	0	0	0	336
11	0	0	0	0	626
12	0	0	0	0	328
13	0	0	0	0	627
14	0	0	0	0	342
15	0	0	0	0	626
0	0	0	0	0	328
1	0	0	0	0	627
2	0	0	0	0	343
3	0	0	0	0	614
4	0	0	0	0	336
5	0	0	0	0	620
6	0	0	0	0	336
7	0	0	0	0	618
8	0	0	0	0	336
9	0	0	0	0	623
10	0	0	0	0	339
11	0	0	0	0	623
12	0	0	0	0	336
13	0	0	0	0	625
14	0	0	0	0	337
15	0	0	0	0	626
0	0	0	0	0	332
1	0	0	0	0	624
2	0	0	0	0	339
3	0	0	0	0	625
4	0	0	0	0	335
5	0	0	0	0	622
6	0	0	0	0	334
7	0	0	0	0	623
8	0	0	0	0	338
9	0	0	0	0	623
10	0	0	0	0	336
11	0	0	0	0	617
12	0	0	0	0	331
13	0	0	0	0	629
14	0	0	0	0	337
15	0	0	0	0	627
0	0	0	0	0	340
1	0	0	0	0	622
2	0	0	0	0	333
3	0	0	0	0	627
4	0	0	0	0	339
5	0	0	0	0	632
6	0	0	0	0	336
7	0	0	0	0	622
8	0	0	0	0	333
9	0	0	0	0	626
10	0	0	0	0	328
11	0	0	0	0	633
12	0	0	0	0	336
13	0	0	0	0	618
14	0	0	0	0	334
15	0	0	0	0	621
0	0	0	0	0	333
1	0	0	0	0	614
2	0	0	0	0	343
3	0	0	0	0	624
4	0	0	0	0	335
5	0	0	0	0	632
6	0	0	0	0	337
7	0	0	0	0	622
8	0	0	0	0	339
9	0	0	0	0	632
10	0	0	0	0	336
11	0	0	0	0	625
12	0	0	0	0	338
13	0	0	0	0	628
14	0	0	0	0	338
15	0	0	0	0	629
0	0	0	0	0	335
1	0	0	0	0	623
2	0	0	0	0	344
3	0	0	0	0	625
4	0	0	0	0	328
5	0	0	0	0	623
6	0	0	0	0	338
7	0	0	0	0	627
8	0	0	0	0	342
9	0	0	0	0	629
10	0	0	0	0	340
11	0	0	0	0	628
12	0	0	0	0	339
13	0	0	0	0	622
14	0	0	0	0	339
15	0	0	0	0	625
0	0	0	0	0	333
1	0	0	0	0	623
2	0	0	0	0	339
3	0	0	0	0	621
4	0	0	0	0	330
5	0	0	0	0	629
6	0	0	0	0	336
7	0	0	0	0	626
8	0	0	0	0	329
9	0	0	0	0	627
10	0	0	0	0	341
11	0	0	0	0	630
12	0	0	0	0	333
13	0	0	0	0	617
14	0	0	0	0	334
15	0	0	0	0	625
0	0	0	0	0	335
1	0	0	0	0	620
2	0	0	0	0	335
3	0	0	0	0	627
4	0	0	0	0	328
5	0	0	0	0	632
6	0	0	0	0	338
7	0	0	0	0	629
8	0	0	0	0	328
9	0	0	0	0	635
10	0	0	0	0	333
11	0	0	0	0	634
12	0	0	0	0	324
13	0	0	0	0	629
14	0	0	0	0	329
15	0	0	0	0	628
0	0	0	0	0	338
1	0	0	0	0	622
2	0	0	0	0	333
3	0	0	0	0	638
4	0	0	0	0	327
5	0	0	0	0	635
6	0	0	0	0	329
7	0	0	0	0	632
8	0	0	0	0	331
9	0	0	0	0	632
10	0	0	0	0	331
11	0	0	0	0	636
12	0	0	0	0	331
13	0	0	0	0	628
14	0	0	0	0	324
15	0	0	0	0	632
0	0	0	0	0	335
1	0	0	0	0	628
2	0	0	0	0	324
3	0	0	0	0	630
4	0	0	0	0	327
5	0	0	0	0	628
6	0	0	0	0	328
7	0	0	0	0	630
8	0	0	0	0	327
9	0	0	0	0	631
10	0	0	0	0	331
11	0	0	0	0	629
12	0	0	0	0	328
13	0	0	0	0	630
14	0	0	0	0	327
15	0	0	0	0	631
0	0	0	0	0	329
1	0	0	0	0	629
2	0	0	0	0	324
3	0	0	0	0	630
4	0	0	0	0	327
5	0	0	0	0	627
6	0	0	0	0	327
7	0	0	0	0	630
8	0	0	0	0	323
9	0	0	0	0	632
10	0	0	0	0	332
11	0	0	0	0	634
12	0	0	0	0	328
13	0	0	0	0	632
14	0	0	0	0	329
15	0	0	0	0	626
0	0	0	0	0	332
1	0	0	0	0	629
2	0	0	0	0	332
3	0	0	0	0	624
4	0	0	0	0	329
5	0	0	0	0	623
6	0	0	0	0	329
7	0	0	0	0	637
8	0	0	0	0	328
9	0	0	0	0	635
10	0	0	0	0	330
11	0	0	0	0	628
12	0	0	0	0	328
13	0	0	0	0	628
14	0	0	0	0	330
15	0	0	0	0	634
0	0	0	0	0	328
1	0	0	0	0	638
2	0	0	0	0	333
3	0	0	0	0	631
4	0	0	0	0	330
5	0	0	0	0	634
6	0	0	0	0	334
7	0	0	0	0	628
8	0	0	0	0	327
9	0	0	0	0	628
10	0	0	0	0	322
11	0	0	0	0	635
12	0	0	0	0	320
13	0	0	0	0	629
14	0	0	0	0	330
15	0	0	0	0	628
0	0	0	0	0	328
1	0	0	0	0	635
2	0	0	0	0	331
3	0	0	0	0	628
4	0	0	0	0	328
5	0	0	0	0	630
6	0	0	0	0	331
7	0	0	0	0	632
8	0	0	0	0	327
9	0	0	0	0	633
10	0	0	0	0	326
11	0	0	0	0	643
12	0	0	0	0	328
13	0	0	0	0	636
14	0	0	0	0	334
15	0	0	0	0	631
0	0	0	0	0	326
1	0	0	0	0	636
2	0	0	0	0	333
3	0	0	0	0	634
4	0	0	0	0	324
5	0	0	0	0	630
6	0	0	0	0	328
7	0	0	0	0	630
8	0	0	0	0	327
9	0	0	0	0	633
10	0	0	0	0	333
11	0	0	0	0	625
12	0	0	0	0	323
13	0	0	0	0	627
14	0	0	0	0	327
15	0	0	0	0	627
0	0	0	0	0	330
1	0	0	0	0	638
2	0	0	0	0	323
3	0	0	0	0	637
4	0	0	0	0	330
5	0	0	0	0	634
6	0	0	0	0	332
7	0	0	0	0	635
8	0	0	0	0	328
9	0	0	0	0	634
10	0	0	0	0	339
11	0	0	0	0	634
12	0	0	0	0	324
13	0	0	0	0	625
14	0	0	0	0	332
15	0	0	0	0	628
0	0	0	0	0	328
1	0	0	0	0	632
2	0	0	0	0	331
3	0	0	0	0	640
4	0	0	0	0	332
5	0	0	0	0	627
6	0	0	0	0	332
7	0	0	0	0	627
8	0	0	0	0	330
9	0	0	0	0	629
10	0	0	0	0	330
11	0	0	0	0	632
12	0	0	0	0	331
13	0	0	0	0	625
14	0	0	0	0	336
15	0	0	0	0	630
0	0	0	0	0	328
1	0	0	0	0	628
2	0	0	0	0	333
3	0	0	0	0	621
4	0	0	0	0	329
5	0	0	0	0	629
6	0	0	0	0	333
7	0	0	0	0	634
8	0	0	0	0	333
9	0	0	0	0	632
10	0	0	0	0	330
11	0	0	0	0	624
12	0	0	0	0	339
13	0	0	0	0	630
14	0	0	0	0	334
15	0	0	0	0	635
0	0	0	0	0	334
1	0	0	0	0	628
2	0	0	0	0	332
3	0	0	0	0	627
4	0	0	0	0	328
5	0	0	0	0	629
6	0	0	0	0	326
7	0	0	0	0	622
8	0	0	0	0	332
9	0	0	0	0	625
10	0	0	0	0	333
11	0	0	0	0	632
12	0	0	0	0	336
13	0	0	0	0	628
14	0	0	0	0	337
15	0	0	0	0	628
0	0	0	0	0	333
1	0	0	0	0	633
2	0	0	0	0	335
3	0	0	0	0	626
4	0	0	0	0	330
5	0	0	0	0	626
6	0	0	0	0	334
7	0	0	0	0	629
8	0	0	0	0	338
9	0	0	0	0	627
10	0	0	0	0	333
11	0	0	0	0	623
12	0	0	0	0	332
13	0	0	0	0	624
14	0	0	0	0	330
15	0	0	0	0	627
0	0	0	0	0	327
1	0	0	0	0	622
2	0	0	0	0	332
3	0	0	0	0	623
4	0	0	0	0	332
5	0	0	0	0	627
6	0	0	0	0	332
7	0	0	0	0	627
8	0	0	0	0	339
9	0	0	0	0	626
10	0	0	0	0	335
11	0	0	0	0	628
12	0	0	0	0	337
13	0	0	0	0	622
14	0	0	0	0	334
15	0	0	0	0	624
0	0	0	0	0	334
1	0	0	0	0	627
2	0	0	0	0	335
3	0	0	0	0	626
4	0	0	0	0	335
5	0	0	0	0	629
6	0	0	0	0	336
7	0	0	0	0	623
8	0	0	0	0	334
9	0	0	0	0	622
10	0	0	0	0	338
11	0	0	0	0	616
12	0	0	0	0	337
13	0	0	0	0	614
14	0	0	0	0	340
15	0	0	0	0	618
0	0	0	0	0	347
1	0	0	0	0	619
2	0	0	0	0	340
3	0	0	0	0	627
4	0	0	0	0	338
5	0	0	0	0	629
6	0	0	0	0	339
7	0	0	0	0	622
8	0	0	0	0	336
9	0	0	0	0	623
10	0	0	0	0	345
11	0	0	0	0	627
12	0	0	0	0	338
13	0	0	0	0	613
14	0	0	0	0	347
15	0	0	0	0	626
0	0	0	0	0	332
1	0	0	0	0	624
2	0	0	0	0	336
3	0	0	0	0	627
4	0	0	0	0	346
5	0	0	0	0	619
6	0	0	0	0	344
7	0	0	0	0	626
8	0	0	0	0	346
9	0	0	0	0	619
10	0	0	0	0	336
11	0	0	0	0	623
12	0	0	0	0	340
13	0	0	0	0	620
14	0	0	0	0	332
15	0	0	0	0	619
0	0	0	0	0	341
1	0	0	0	0	623
2	0	0	0	0	344
3	0	0	0	0	626
4	0	0	0	0	344
5	0	0	0	0	615
6	0	0	0	0	347
7	0	0	0	0	632
8	0	0	0	0	346
9	0	0	0	0	620
10	0	0	0	0	339
11	0	0	0	0	621
12	0	0	0	0	348
13	0	0	0	0	621
14	0	0	0	0	339
15	0	0	0	0	622
0	0	0	0	0	338
1	0	0	0	0	623
2	0	0	0	0	339
3	0	0	0	0	621
4	0	0	0	0	339
5	0	0	0	0	620
6	0	0	0	0	346
7	0	0	0	0	628
8	0	0	0	0	346
9	0	0	0	0	618
10	0	0	0	0	340
11	0	0	0	0	621
12	0	0	0	0	337
13	0	0	0	0	619
14	0	0	0	0	341
15	0	0	0	0	631
0	0	0	0	0	338
1	0	0	0	0	615
2	0	0	0	0	340
3	0	0	0	0	620
4	0	0	0	0	341
5	0	0	0	0	625
6	0	0	0	0	342
7	0	0	0	0	615
8	0	0	0	0	340
9	0	0	0	0	623
10	0	0	0	0	345
11	0	0	0	0	625
12	0	0	0	0	334
13	0	0	0	0	620
14	0	0	0	0	341
15	0	0	0	0	621
0	0	0	0	0	343
1	0	0	0	0	625
2	0	0	0	0	336
3	0	0	0	0	629
4	0	0	0	0	345
5	0	0	0	0	618
6	0	0	0	0	342
7	0	0	0	0	621
8	0	0	0	0	345
9	0	0	0	0	623
10	0	0	0	0	345
11	0	0	0	0	618
12	0	0	0	0	341
13	0	0	0	0	618
14	0	0	0	0	345
15	0	0	0	0	619
0	0	0	0	0	336
1	0	0	0	0	616
2	0	0	0	0	343
3	0	0	0	0	619
4	0	0	0	0	339
5	0	0	0	0	616
6	0	0	0	0	347
7	0	0	0	0	623
8	0	0	0	0	342
9	0	0	0	0	612
10	0	0	0	0	344
11	0	0	0	0	625
12	0	0	0	0	345
13	0	0	0	0	621
14	0	0	0	0	344
15	0	0	0	0	620
0	0	0	0	0	343
1	0	0	0	0	616
2	0	0	0	0	344
3	0	0	0	0	622
4	0	0	0	0	344
5	0	0	0	0	622
6	0	0	0	0	347
7	0	0	0	0	615
8	0	0	0	0	344
9	0	0	0	0	622
10	0	0	0	0	345
11	0	0	0	0	628
12	0	0	0	0	346
13	0	0	0	0	616
14	0	0	0	0	343
15	0	0	0	0	619
0	0	0	0	0	342
1	0	0	0	0	616
2	0	0	0	0	350
3	0	0	0	0	623
4	0	0	0	0	339
5	0	0	0	0	616
6	0	0	0	0	351
7	0	0	0	0	616
8	0	0	0	0	346
9	0	0	0	0	619
10	0	0	0	0	344
11	0	0	0	0	619
12	0	0	0	0	342
13	0	0	0	0	623
14	0	0	0	0	345
15	0	0	0	0	614
0	0	0	0	0	340
1	0	0	0	0	621
2	0	0	0	0	345
3	0	0	0	0	617
4	0	0	0	0	332
5	0	0	0	0	613
6	0	0	0	0	346
7	0	0	0	0	615
8	0	0	0	0	348
9	0	0	0	0	614
10	0	0	0	0	345
11	0	0	0	0	620
12	0	0	0	0	334
13	0	0	0	0	622
14	0	0	0	0	346
15	0	0	0	0	626
0	0	0	0	0	341
1	0	0	0	0	614
2	0	0	0	0	345
3	0	0	0	0	618
4	0	0	0	0	343
5	0	0	0	0	612
6	0	0	0	0	347
7	0	0	0	0	621
8	0	0	0	0	336
9	0	0	0	0	623
10	0	0	0	0	339
11	0	0	0	0	614
12	0	0	0	0	348
13	0	0	0	0	610
14	0	0	0	0	340
15	0	0	0	0	620
0	0	0	0	0	339
1	0	0	0	0	619
2	0	0	0	0	347
3	0	0	0	0	625
4	0	0	0	0	343
5	0	0	0	0	615
6	0	0	0	0	343
7	0	0	0	0	623
8	0	0	0	0	339
9	0	0	0	0	614
10	0	0	0	0	348
11	0	0	0	0	617
12	0	0	0	0	340
13	0	0	0	0	619
14	0	0	0	0	350
15	0	0	0	0	615
0	0	0	0	0	348
1	0	0	0	0	616
2	0	0	0	0	339
3	0	0	0	0	618
4	0	0	0	0	340
5	0	0	0	0	615
6	0	0	0	0	343
7	0	0	0	0	623
8	0	0	0	0	342
9	0	0	0	0	613
10	0	0	0	0	345
11	0	0	0	0	614
12	0	0	0	0	343
13	0	0	0	0	619
14	0	0	0	0	347
15	0	0	0	0	623
0	0	0	0	0	344
1	0	0	0	0	618
2	0	0	0	0	349
3	0	0	0	0	620
4	0	0	0	0	342
5	0	0	0	0	613
6	0	0	0	0	344
7	0	0	0	0	613
8	0	0	0	0	341
9	0	0	0	0	625
10	0	0	0	0	347
11	0	0	0	0	617
12	0	0	0	0	345
13	0	0	0	0	624
14	0	0	0	0	347
15	0	0	0	0	618
0	0	0	0	0	349
1	0	0	0	0	620
2	0	0	0	0	343
3	0	0	0	0	613
4	0	0	0	0	345
5	0	0	0	0	620
6	0	0	0	0	340
7	0	0	0	0	618
8	0	0	0	0	344
9	0	0	0	0	620
10	0	0	0	0	348
11	0	0	0	0	616
12	0	0	0	0	343
13	0	0	0	0	625
14	0	0	0	0	344
15	0	0	0	0	618
0	0	0	0	0	348
1	0	0	0	0	626
2	0	0	0	0	349
3	0	0	0	0	611
4	0	0	0	0	340
5	0	0	0	0	622
6	0	0	0	0	349
7	0	0	0	0	620
8	0	0	0	0	342
9	0	0	0	0	610
10	0	0	0	0	340
11	0	0	0	0	616
12	0	0	0	0	346
13	0	0	0	0	615
14	0	0	0	0	341
15	0	0	0	0	620
0	0	0	0	0	342
1	0	0	0	0	611
2	0	0	0	0	344
3	0	0	0	0	613
4	0	0	0	0	344
5	0	0	0	0	614
6	0	0	0	0	344
7	0	0	0	0	617
8	0	0	0	0	346
9	0	0	0	0	616
10	0	0	0	0	354
11	0	0	0	0	620
12	0	0	0	0	348
13	0	0	0	0	617
14	0	0	0	0	348
15	0	0	0	0	616
0	0	0	0	0	337
1	0	0	0	0	616
2	0	0	0	0	347
3	0	0	0	0	618
4	0	0	0	0	347
5	0	0	0	0	622
6	0	0	0	0	346
7	0	0	0	0	615
8	0	0	0	0	348
9	0	0	0	0	610
10	0	0	0	0	347
11	0	0	0	0	618
12	0	0	0	0	346
13	0	0	0	0	618
14	0	0	0	0	343
15	0	0	0	0	614
0	0	0	0	0	351
1	0	0	0	0	619
2	0	0	0	0	352
3	0	0	0	0	622
4	0	0	0	0	352
5	0	0	0	0	619
6	0	0	0	0	346
7	0	0	0	0	618
8	0	0	0	0	351
9	0	0	0	0	617
10	0	0	0	0	350
11	0	0	0	0	619
12	0	0	0	0	347
13	0	0	0	0	616
14	0	0	0	0	347
15	0	0	0	0	618
0	0	0	0	0	348
1	0	0	0	0	623
2	0	0	0	0	347
3	0	0	0	0	618
4	0	0	0	0	351
5	0	0	0	0	617
6	0	0	0	0	349
7	0	0	0	0	612
8	0	0	0	0	348
9	0	0	0	0	618
10	0	0	0	0	347
11	0	0	0	0	619
12	0	0	0	0	352
13	0	0	0	0	623
14	0	0	0	0	356
15	0	0	0	0	618
0	0	0	0	0	343
1	0	0	0	0	620
2	0	0	0	0	349
3	0	0	0	0	612
4	0	0	0	0	349
5	0	0	0	0	621
6	0	0	0	0	351
7	0	0	0	0	622
8	0	0	0	0	355
9	0	0	0	0	611
10	0	0	0	0	349
11	0	0	0	0	615
12	0	0	0	0	351
13	0	0	0	0	619
14	0	0	0	0	359
15	0	0	0	0	612
0	0	0	0	0	344
1	0	0	0	0	616
2	0	0	0	0	352
3	0	0	0	0	620
4	0	0	0	0	344
5	0	0	0	0	619
6	0	0	0	0	346
7	0	0	0	0	621
8	0	0	0	0	349
9	0	0	0	0	626
10	0	0	0	0	357
11	0	0	0	0	617
12	0	0	0	0	354
13	0	0	0	0	614
14	0	0	0	0	355
15	0	0	0	0	615
0	0	0	0	0	351
1	0	0	0	0	612
2	0	0	0	0	351
3	0	0	0	0	614
4	0	0	0	0	344
5	0	0	0	0	615
6	0	0	0	0	351
7	0	0	0	0	618
8	0	0	0	0	362
9	0	0	0	0	610
10	0	0	0	0	354
11	0	0	0	0	614
12	0	0	0	0	351
13	0	0	0	0	620
14	0	0	0	0	357
15	0	0	0	0	616
0	0	0	0	0	351
1	0	0	0	0	612
2	0	0	0	0	353
3	0	0	0	0	615
4	0	0	0	0	354
5	0	0	0	0	615
6	0	0	0	0	352
7	0	0	0	0	615
8	0	0	0	0	358
9	0	0	0	0	615
10	0	0	0	0	350
11	0	0	0	0	613
12	0	0	0	0	357
13	0	0	0	0	614
14	0	0	0	0	355
15	0	0	0	0	608
0	0	0	0	0	354
1	0	0	0	0	606
2	0	0	0	0	352
3	0	0	0	0	619
4	0	0	0	0	358
5	0	0	0	0	615
6	0	0	0	0	354
7	0	0	0	0	611
8	0	0	0	0	353
9	0	0	0	0	610
10	0	0	0	0	361
11	0	0	0	0	613
12	0	0	0	0	360
13	0	0	0	0	616
14	0	0	0	0	354
15	0	0	0	0	609
0	0	0	0	0	364
1	0	0	0	0	618
2	0	0	0	0	355
3	0	0	0	0	607
4	0	0	0	0	353
5	0	0	0	0	611
6	0	0	0	0	356
7	0	0	0	0	616
8	0	0	0	0	359
9	0	0	0	0	611
10	0	0	0	0	356
11	0	0	0	0	609
12	0	0	0	0	356
13	0	0	0	0	608
14	0	0	0	0	359
15	0	0	0	0	612
0	0	0	0	0	354
1	0	0	0	0	611
2	0	0	0	0	362
3	0	0	0	0	609
4	0	0	0	0	353
5	0	0	0	0	613
6	0	0	0	0	362
7	0	0	0	0	613
8	0	0	0	0	356
9	0	0	0	0	616
10	0	0	0	0	353
11	0	0	0	0	610
12	0	0	0	0	355
13	0	0	0	0	613
14	0	0	0	0	351
15	0	0	0	0	608
0	0	0	0	0	357
1	0	0	0	0	617
2	0	0	0	0	362
3	0	0	0	0	617
4	0	0	0	0	360
5	0	0	0	0	608
6	0	0	0	0	363
7	0	0	0	0	615
8	0	0	0	0	356
9	0	0	0	0	614
10	0	0	0	0	367
11	0	0	0	0	607
12	0	0	0	0	355
13	0	0	0	0	609
14	0	0	0	0	361
15	0	0	0	0	606
0	0	0	0	0	361
1	0	0	0	0	610
2	0	0	0	0	359
3	0	0	0	0	605
4	0	0	0	0	359
5	0	0	0	0	613
6	0	0	0	0	356
7	0	0	0	0	611
8	0	0	0	0	360
9	0	0	0	0	608
10	0	0	0	0	363
11	0	0	0	0	618
12	0	0	0	0	357
13	0	0	0	0	608
14	0	0	0	0	363
15	0	0	0	0	616
0	0	0	0	0	353
1	0	0	0	0	610
2	0	0	0	0	356
3	0	0	0	0	613
4	0	0	0	0	364
5	0	0	0	0	604
6	0	0	0	0	358
7	0	0	0	0	608
8	0	0	0	0	360
9	0	0	0	0	605
10	0	0	0	0	367
11	0	0	0	0	611
12	0	0	0	0	360
13	0	0	0	0	616
14	0	0	0	0	360
15	0	0	0	0	600
0	0	0	0	0	359
1	0	0	0	0	613
2	0	0	0	0	364
3	0	0	0	0	609
4	0	0	0	0	367
5	0	0	0	0	608
6	0	0	0	0	364
7	0	0	0	0	611
8	0	0	0	0	357
9	0	0	0	0	611
10	0	0	0	0	365
11	0	0	0	0	610
12	0	0	0	0	356
13	0	0	0	0	611
14	0	0	0	0	365
15	0	0	0	0	612
0	0	0	0	0	358
1	0	0	0	0	612
2	0	0	0	0	357
3	0	0	0	0	610
4	0	0	0	0	364
5	0	0	0	0	600
6	0	0	0	0	363
7	0	0	0	0	615
8	0	0	0	0	363
9	0	0	0	0	605
10	0	0	0	0	363
11	0	0	0	0	606
12	0	0	0	0	356
13	0	0	0	0	607
14	0	0	0	0	368
15	0	0	0	0	603
0	0	0	0	0	361
1	0	0	0	0	605
2	0	0	0	0	362
3	0	0	0	0	612
4	0	0	0	0	359
5	0	0	0	0	604
6	0	0	0	0	358
7	0	0	0	0	609
8	0	0	0	0	358
9	0	0	0	0	610
10	0	0	0	0	359
11	0	0	0	0	606
12	0	0	0	0	358
13	0	0	0	0	604
14	0	0	0	0	358
15	0	0	0	0	603
0	0	0	0	0	360
1	0	0	0	0	610
2	0	0	0	0	362
3	0	0	0	0	611
4	0	0	0	0	359
5	0	0	0	0	606
6	0	0	0	0	361
7	0	0	0	0	615
8	0	0	0	0	367
9	0	0	0	0	605
10	0	0	0	0	364
11	0	0	0	0	612
12	0	0	0	0	359
13	0	0	0	0	609
14	0	0	0	0	358
15	0	0	0	0	609
0	0	0	0	0	362
1	0	0	0	0	607
2	0	0	0	0	360
3	0	0	0	0	599
4	0	0	0	0	370
5	0	0	0	0	608
6	0	0	0	0	361
7	0	0	0	0	613
8	0	0	0	0	359
9	0	0	0	0	608
10	0	0	0	0	365
11	0	0	0	0	605
12	0	0	0	0	359
13	0	0	0	0	613
14	0	0	0	0	359
15	0	0	0	0	607
0	0	0	0	0	353
1	0	0	0	0	610
2	0	0	0	0	362
3	0	0	0	0	607
4	0	0	0	0	360
5	0	0	0	0	606
6	0	0	0	0	361
7	0	0	0	0	611
8	0	0	0	0	364
9	0	0	0	0	608
10	0	0	0	0	365
11	0	0	0	0	612
12	0	0	0	0	355
13	0	0	0	0	614
14	0	0	0	0	349
15	0	0	0	0	610
0	0	0	0	0	363
1	0	0	0	0	604
2	0	0	0	0	366
3	0	0	0	0	607
4	0	0	0	0	369
5	0	0	0	0	616
6	0	0	0	0	361
7	0	0	0	0	604
8	0	0	0	0	359
9	0	0	0	0	609
10	0	0	0	0	361
11	0	0	0	0	604
12	0	0	0	0	360
13	0	0	0	0	605
14	0	0	0	0	365
15	0	0	0	0	607
0	0	0	0	0	367
1	0	0	0	0	607
2	0	0	0	0	365
3	0	0	0	0	612
4	0	0	0	0	363
5	0	0	0	0	615
6	0	0	0	0	360
7	0	0	0	0	607
8	0	0	0	0	355
9	0	0	0	0	610
10	0	0	0	0	364
11	0	0	0	0	606
12	0	0	0	0	351
13	0	0	0	0	613
14	0	0	0	0	355
15	0	0	0	0	611
0	0	0	0	0	359
1	0	0	0	0	612
2	0	0	0	0	360
3	0	0	0	0	613
4	0	0	0	0	359
5	0	0	0	0	608
6	0	0	0	0	357
7	0	0	0	0	614
8	0	0	0	0	356
9	0	0	0	0	615
10	0	0	0	0	359
11	0	0	0	0	619
12	0	0	0	0	358
13	0	0	0	0	616
14	0	0	0	0	356
15	0	0	0	0	611
0	0	0	0	0	355
1	0	0	0	0	618
2	0	0	0	0	350
3	0	0	0	0	614
4	0	0	0	0	360
5	0	0	0	0	608
6	0	0	0	0	361
7	0	0	0	0	614
8	0	0	0	0	354
9	0	0	0	0	610
10	0	0	0	0	354
11	0	0	0	0	620
12	0	0	0	0	349
13	0	0	0	0	613
14	0	0	0	0	354
15	0	0	0	0	612
0	0	0	0	0	354
1	0	0	0	0	617
2	0	0	0	0	355
3	0	0	0	0	623
4	0	0	0	0	349
5	0	0	0	0	616
6	0	0	0	0	357
7	0	0	0	0	614
8	0	0	0	0	355
9	0	0	0	0	612
10	0	0	0	0	358
11	0	0	0	0	612
12	0	0	0	0	353
13	0	0	0	0	616
14	0	0	0	0	350
15	0	0	0	0	609
0	0	0	0	0	349
1	0	0	0	0	610
2	0	0	0	0	356
3	0	0	0	0	612
4	0	0	0	0	355
5	0	0	0	0	612
6	0	0	0	0	352
7	0	0	0	0	616
8	0	0	0	0	356
9	0	0	0	0	608
10	0	0	0	0	354
11	0	0	0	0	615
12	0	0	0	0	353
13	0	0	0	0	618
14	0	0	0	0	362
15	0	0	0	0	615
0	0	0	0	0	352
1	0	0	0	0	615
2	0	0	0	0	361
3	0	0	0	0	613
4	0	0	0	0	363
5	0	0	0	0	616
6	0	0	0	0	354
7	0	0	0	0	614
8	0	0	0	0	360
9	0	0	0	0	614
10	0	0	0	0	349
11	0	0	0	0	608
12	0	0	0	0	353
13	0	0	0	0	610
14	0	0	0	0	357
15	0	0	0	0	614
0	0	0	0	0	358
1	0	0	0	0	604
2	0	0	0	0	363
3	0	0	0	0	607
4	0	0	0	0	363
5	0	0	0	0	612
6	0	0	0	0	367
7	0	0	0	0	614
8	0	0	0	0	359
9	0	0	0	0	617
10	0	0	0	0	350
11	0	0	0	0	612
12	0	0	0	0	364
13	0	0	0	0	607
14	0	0	0	0	360
15	0	0	0	0	609
0	0	0	0	0	355
1	0	0	0	0	613
2	0	0	0	0	357
3	0	0	0	0	615
4	0	0	0	0	356
5	0	0	0	0	612
6	0	0	0	0	360
7	0	0	0	0	613
8	0	0	0	0	354
9	0	0	0	0	613
10	0	0	0	0	355
11	0	0	0	0	612
12	0	0	0	0	358
13	0	0	0	0	619
14	0	0	0	0	349
15	0	0	0	0	616
0	0	0	0	0	345
1	0	0	0	0	618
2	0	0	0	0	349
3	0	0	0	0	620
4	0	0	0	0	342
5	0	0	0	0	613
6	0	0	0	0	349
7	0	0	0	0	623
8	0	0	0	0	347
9	0	0	0	0	618
10	0	0	0	0	352
11	0	0	0	0	626
12	0	0	0	0	348
13	0	0	0	0	612
14	0	0	0	0	349
15	0	0	0	0	617
0	0	0	0	0	347
1	0	0	0	0	618
2	0	0	0	0	347
3	0	0	0	0	619
4	0	0	0	0	347
5	0	0	0	0	615
6	0	0	0	0	351
7	0	0	0	0	621
8	0	0	0	0	341
9	0	0	0	0	622
10	0	0	0	0	352
11	0	0	0	0	618
12	0	0	0	0	348
13	0	0	0	0	624
14	0	0	0	0	351
15	0	0	0	0	621
0	0	0	0	0	351
1	0	0	0	0	612
2	0	0	0	0	351
3	0	0	0	0	613
4	0	0	0	0	346
5	0	0	0	0	619
6	0	0	0	0	351
7	0	0	0	0	623
8	0	0	0	0	347
9	0	0	0	0	611
10	0	0	0	0	345
11	0	0	0	0	617
12	0	0	0	0	346
13	0	0	0	0	622
14	0	0	0	0	352
15	0	0	0	0	619
0	0	0	0	0	340
1	0	0	0	0	620
2	0	0	0	0	351
3	0	0	0	0	615
4	0	0	0	0	355
5	0	0	0	0	617
6	0	0	0	0	349
7	0	0	0	0	614
8	0	0	0	0	346
9	0	0	0	0	619
10	0	0	0	0	347
11	0	0	0	0	621
12	0	0	0	0	345
13	0	0	0	0	621
14	0	0	0	0	349
15	0	0	0	0	619
0	0	0	0	0	351
1	0	0	0	0	612
2	0	0	0	0	345
3	0	0	0	0	627
4	0	0	0	0	349
5	0	0	0	0	616
6	0	0	0	0	348
7	0	0	0	0	620
8	0	0	0	0	351
9	0	0	0	0	615
10	0	0	0	0	337
11	0	0	0	0	624
12	0	0	0	0	337
13	0	0	0	0	618
14	0	0	0	0	344
15	0	0	0	0	615
0	0	0	0	0	345
1	0	0	0	0	628
2	0	0	0	0	351
3	0	0	0	0	617
4	0	0	0	0	348
5	0	0	0	0	616
6	0	0	0	0	339
7	0	0	0	0	617
8	0	0	0	0	346
9	0	0	0	0	623
10	0	0	0	0	352
11	0	0	0	0	622
12	0	0	0	0	345
13	0	0	0	0	619
14	0	0	0	0	343
15	0	0	0	0	617
0	0	0	0	0	342
1	0	0	0	0	618
2	0	0	0	0	344
3	0	0	0	0	620
4	0	0	0	0	344
5	0	0	0	0	621
6	0	0	0	0	341
7	0	0	0	0	615
8	0	0	0	0	345
9	0	0	0	0	623
10	0	0	0	0	349
11	0	0	0	0	616
12	0	0	0	0	348
13	0	0	0	0	615
14	0	0	0	0	347
15	0	0	0	0	621
0	0	0	0	0	346
1	0	0	0	0	615
2	0	0	0	0	347
3	0	0	0	0	626
4	0	0	0	0	338
5	0	0	0	0	626
6	0	0	0	0	346
7	0	0	0	0	626
8	0	0	0	0	348
9	0	0	0	0	619
10	0	0	0	0	343
11	0	0	0	0	621
12	0	0	0	0	342
13	0	0	0	0	623
14	0	0	0	0	350
15	0	0	0	0	619
0	0	0	0	0	341
1	0	0	0	0	617
2	0	0	0	0	346
3	0	0	0	0	618
4	0	0	0	0	348
5	0	0	0	0	619
6	0	0	0	0	351
7	0	0	0	0	619
8	0	0	0	0	350
9	0	0	0	0	626
10	0	0	0	0	341
11	0	0	0	0	626
12	0	0	0	0	351
13	0	0	0	0	622
14	0	0	0	0	348
15	0	0	0	0	618
0	0	0	0	0	350
1	0	0	0	0	625
2	0	0	0	0	348
3	0	0	0	0	623
4	0	0	0	0	350
5	0	0	0	0	619
6	0	0	0	0	337
7	0	0	0	0	617
8	0	0	0	0	347
9	0	0	0	0	626
10	0	0	0	0	345
11	0	0	0	0	625
12	0	0	0	0	342
13	0	0	0	0	619
14	0	0	0	0	346
15	0	0	0	0	617
0	0	0	0	0	344
1	0	0	0	0	620
2	0	0	0	0	348
3	0	0	0	0	625
4	0	0	0	0	343
5	0	0	0	0	618
6	0	0	0	0	341
7	0	0	0	0	627
8	0	0	0	0	349
9	0	0	0	0	624
10	0	0	0	0	344
11	0	0	0	0	616
12	0	0	0	0	347
13	0	0	0	0	622
14	0	0	0	0	345
15	0	0	0	0	626
0	0	0	0	0	346
1	0	0	0	0	622
2	0	0	0	0	347
3	0	0	0	0	620
4	0	0	0	0	345
5	0	0	0	0	621
6	0	0	0	0	343
7	0	0	0	0	622
8	0	0	0	0	347
9	0	0	0	0	631
10	0	0	0	0	349
11	0	0	0	0	617
12	0	0	0	0	339
13	0	0	0	0	623
14	0	0	0	0	346
15	0	0	0	0	619
0	0	0	0	0	347
1	0	0	0	0	618
2	0	0	0	0	346
3	0	0	0	0	621
4	0	0	0	0	339
5	0	0	0	0	620
6	0	0	0	0	347
7	0	0	0	0	626
8	0	0	0	0	338
9	0	0	0	0	625
10	0	0	0	0	345
11	0	0	0	0	613
12	0	0	0	0	343
13	0	0	0	0	623
14	0	0	0	0	343
15	0	0	0	0	622
0	0	0	0	0	344
1	0	0	0	0	619
2	0	0	0	0	341
3	0	0	0	0	618
4	0	0	0	0	352
5	0	0	0	0	619
6	0	0	0	0	355
7	0	0	0	0	613
8	0	0	0	0	349
9	0	0	0	0	618
10	0	0	0	0	347
11	0	0	0	0	621
12	0	0	0	0	348
13	0	0	0	0	624
14	0	0	0	0	351
15	0	0	0	0	618
0	0	0	0	0	347
1	0	0	0	0	618
2	0	0	0	0	343
3	0	0	0	0	617
4	0	0	0	0	337
5	0	0	0	0	619
6	0	0	0	0	341
7	0	0	0	0	621
8	0	0	0	0	347
9	0	0	0	0	620
10	0	0	0	0	343
11	0	0	0	0	625
12	0	0	0	0	350
13	0	0	0	0	622
14	0	0	0	0	346
15	0	0	0	0	620
0	0	0	0	0	350
1	0	0	0	0	625
2	0	0	0	0	351
3	0	0	0	0	619
4	0	0	0	0	343
5	0	0	0	0	619
6	0	0	0	0	344
7	0	0	0	0	623
8	0	0	0	0	355
9	0	0	0	0	623
10	0	0	0	0	348
11	0	0	0	0	619
12	0	0	0	0	344
13	0	0	0	0	626
14	0	0	0	0	343
15	0	0	0	0	618
0	0	0	0	0	348
1	0	0	0	0	619
2	0	0	0	0	348
3	0	0	0	0	619
4	0	0	0	0	343
5	0	0	0	0	626
6	0	0	0	0	344
7	0	0	0	0	616
8	0	0	0	0	345
9	0	0	0	0	617
10	0	0	0	0	347
11	0	0	0	0	623
12	0	0	0	0	351
13	0	0	0	0	624
14	0	0	0	0	356
15	0	0	0	0	619
0	0	0	0	0	352
1	0	0	0	0	623
2	0	0	0	0	346
3	0	0	0	0	620
4	0	0	0	0	346
5	0	0	0	0	617
6	0	0	0	0	351
7	0	0	0	0	612
8	0	0	0	0	346
9	0	0	0	0	616
10	0	0	0	0	350
11	0	0	0	0	616
12	0	0	0	0	348
13	0	0	0	0	615
14	0	0	0	0	345
15	0	0	0	0	618
0	0	0	0	0	344
1	0	0	0	0	615
2	0	0	0	0	352
3	0	0	0	0	621
4	0	0	0	0	347
5	0	0	0	0	619
6	0	0	0	0	347
7	0	0	0	0	612
8	0	0	0	0	348
9	0	0	0	0	619
10	0	0	0	0	348
11	0	0	0	0	620
12	0	0	0	0	349
13	0	0	0	0	620
14	0	0	0	0	349
15	0	0	0	0	616
0	0	0	0	0	348
1	0	0	0	0	618
2	0	0	0	0	352
3	0	0	0	0	623
4	0	0	0	0	347
5	0	0	0	0	612
6	0	0	0	0	344
7	0	0	0	0	622
8	0	0	0	0	348
9	0	0	0	0	616
10	0	0	0	0	346
11	0	0	0	0	624
12	0	0	0	0	348
13	0	0	0	0	624
14	0	0	0	0	351
15	0	0	0	0	614
0	0	0	0	0	349
1	0	0	0	0	615
2	0	0	0	0	354
3	0	0	0	0	615
4	0	0	0	0	347
5	0	0	0	0	617
6	0	0	0	0	350
7	0	0	0	0	618
8	0	0	0	0	349
9	0	0	0	0	619
10	0	0	0	0	350
11	0	0	0	0	622
12	0	0	0	0	346
13	0	0	0	0	615
14	0	0	0	0	352
15	0	0	0	0	617
0	0	0	0	0	347
1	0	0	0	0	618
2	0	0	0	0	348
3	0	0	0	0	619
4	0	0	0	0	348
5	0	0	0	0	617
6	0	0	0	0	344
7	0	0	0	0	618
8	0	0	0	0	344
9	0	0	0	0	616
10	0	0	0	0	347
11	0	0	0	0	623
12	0	0	0	0	348
13	0	0	0	0	624
14	0	0	0	0	349
15	0	0	0	0	622
0	0	0	0	0	351
1	0	0	0	0	612
2	0	0	0	0	356
3	0	0	0	0	616
4	0	0	0	0	354
5	0	0	0	0	622
6	0	0	0	0	348
7	0	0	0	0	616
8	0	0	0	0	352
9	0	0	0	0	617
10	0	0	0	0	351
11	0	0	0	0	616
12	0	0	0	0	348
13	0	0	0	0	615
14	0	0	0	0	351
15	0	0	0	0	620
0	0	0	0	0	352
1	0	0	0	0	622
2	0	0	0	0	351
3	0	0	0	0	614
4	0	0	0	0	348
5	0	0	0	0	619
6	0	0	0	0	352
7	0	0	0	0	617
8	0	0	0	0	349
9	0	0	0	0	610
10	0	0	0	0	353
11	0	0	0	0	613
12	0	0	0	0	348
13	0	0	0	0	618
14	0	0	0	0	353
15	0	0	0	0	620
0	0	0	0	0	344
1	0	0	0	0	609
2	0	0	0	0	348
3	0	0	0	0	615
4	0	0	0	0	346
5	0	0	0	0	616
6	0	0	0	0	349
7	0	0	0	0	612
8	0	0	0	0	351
9	0	0	0	0	619
10	0	0	0	0	349
11	0	0	0	0	622
12	0	0	0	0	347
13	0	0	0	0	612
14	0	0	0	0	353
15	0	0	0	0	612
0	0	0	0	0	351
1	0	0	0	0	614
2	0	0	0	0	347
3	0	0	0	0	621
4	0	0	0	0	340
5	0	0	0	0	615
6	0	0	0	0	351
7	0	0	0	0	617
8	0	0	0	0	349
9	0	0	0	0	620
10	0	0	0	0	347
11	0	0	0	0	612
12	0	0	0	0	356
13	0	0	0	0	611
14	0	0	0	0	348
15	0	0	0	0	619
0	0	0	0	0	353
1	0	0	0	0	611
2	0	0	0	0	355
3	0	0	0	0	612
4	0	0	0	0	352
5	0	0	0	0	622
6	0	0	0	0	352
7	0	0	0	0	613
8	0	0	0	0	351
9	0	0	0	0	612
10	0	0	0	0	349
11	0	0	0	0	619
12	0	0	0	0	352
13	0	0	0	0	613
14	0	0	0	0	356
15	0	0	0	0	613
0	0	0	0	0	346
1	0	0	0	0	620
2	0	0	0	0	351
3	0	0	0	0	616
4	0	0	0	0	351
5	0	0	0	0	619
6	0	0	0	0	356
7	0	0	0	0	616
8	0	0	0	0	350
9	0	0	0	0	619
10	0	0	0	0	348
11	0	0	0	0	620
12	0	0	0	0	347
13	0	0	0	0	611
14	0	0	0	0	357
15	0	0	0	0	614
0	0	0	0	0	355
1	0	0	0	0	622
2	0	0	0	0	345
3	0	0	0	0	614
4	0	0	0	0	349
5	0	0	0	0	621
6	0	0	0	0	348
7	0	0	0	0	622
8	0	0	0	0	351
9	0	0	0	0	621
10	0	0	0	0	354
11	0	0	0	0	615
12	0	0	0	0	351
13	0	0	0	0	616
14	0	0	0	0	350
15	0	0	0	0	624
0	0	0	0	0	347
1	0	0	0	0	616
2	0	0	0	0	350
3	0	0	0	0	616
4	0	0	0	0	349
5	0	0	0	0	616
6	0	0	0	0	348
7	0	0	0	0	616
8	0	0	0	0	343
9	0	0	0	0	622
10	0	0	0	0	346
11	0	0	0	0	623
12	0	0	0	0	348
13	0	0	0	0	621
14	0	0	0	0	347
15	0	0	0	0	623
0	0	0	0	0	342
1	0	0	0	0	613
2	0	0	0	0	343
3	0	0	0	0	620
4	0	0	0	0	355
5	0	0	0	0	616
6	0	0	0	0	350
7	0	0	0	0	624
8	0	0	0	0	352
9	0	0	0	0	616
10	0	0	0	0	349
11	0	0	0	0	620
12	0	0	0	0	351
13	0	0	0	0	619
14	0	0	0	0	347
15	0	0	0	0	623
0	0	0	0	0	348
1	0	0	0	0	620
2	0	0	0	0	347
3	0	0	0	0	627
4	0	0	0	0	351
5	0	0	0	0	622
6	0	0	0	0	351
7	0	0	0	0	626
8	0	0	0	0	350
9	0	0	0	0	626
10	0	0	0	0	345
11	0	0	0	0	618
12	0	0	0	0	343
13	0	0	0	0	626
14	0	0	0	0	346
15	0	0	0	0	617
0	0	0	0	0	347
1	0	0	0	0	624
2	0	0	0	0	346
3	0	0	0	0	617
4	0	0	0	0	343
5	0	0	0	0	626
6	0	0	0	0	346
7	0	0	0	0	622
8	0	0	0	0	346
9	0	0	0	0	622
10	0	0	0	0	341
11	0	0	0	0	625
12	0	0	0	0	342
13	0	0	0	0	618
14	0	0	0	0	349
15	0	0	0	0	617
0	0	0	0	0	345
1	0	0	0	0	620
2	0	0	0	0	348
3	0	0	0	0	623
4	0	0	0	0	352
5	0	0	0	0	628
6	0	0	0	0	344
7	0	0	0	0	624
8	0	0	0	0	349
9	0	0	0	0	624
10	0	0	0	0	351
11	0	0	0	0	620
12	0	0	0	0	341
13	0	0	0	0	624
14	0	0	0	0	338
15	0	0	0	0	620
0	0	0	0	0	347
1	0	0	0	0	620
2	0	0	0	0	347
3	0	0	0	0	616
4	0	0	0	0	341
5	0	0	0	0	618
6	0	0	0	0	337
7	0	0	0	0	619
8	0	0	0	0	340
9	0	0	0	0	621
10	0	0	0	0	346
11	0	0	0	0	620
12	0	0	0	0	355
13	0	0	0	0	615
14	0	0	0	0	346
15	0	0	0	0	625
0	0	0	0	0	341
1	0	0	0	0	620
2	0	0	0	0	348
3	0	0	0	0	618
4	0	0	0	0	342
5	0	0	0	0	626
6	0	0	0	0	350
7	0	0	0	0	619
8	0	0	0	0	341
9	0	0	0	0	623
10	0	0	0	0	348
11	0	0	0	0	620
12	0	0	0	0	338
13	0	0	0	0	627
14	0	0	0	0	348
15	0	0	0	0	627
0	0	0	0	0	338
1	0	0	0	0	623
2	0	0	0	0	340
3	0	0	0	0	619
4	0	0	0	0	347
5	0	0	0	0	623
6	0	0	0	0	350
7	0	0	0	0	619
8	0	0	0	0	342
9	0	0	0	0	621
10	0	0	0	0	341
11	0	0	0	0	619
12	0	0	0	0	339
13	0	0	0	0	624
14	0	0	0	0	341
15	0	0	0	0	629
0	0	0	0	0	347
1	0	0	0	0	616
2	0	0	0	0	339
3	0	0	0	0	623
4	0	0	0	0	350
5	0	0	0	0	616
6	0	0	0	0	343
7	0	0	0	0	625
8	0	0	0	0	338
9	0	0	0	0	618
10	0	0	0	0	338
11	0	0	0	0	628
12	0	0	0	0	347
13	0	0	0	0	617
14	0	0	0	0	347
15	0	0	0	0	627
0	0	0	0	0	339
1	0	0	0	0	627
2	0	0	0	0	350
3	0	0	0	0	622
4	0	0	0	0	349
5	0	0	0	0	616
6	0	0	0	0	339
7	0	0	0	0	626
8	0	0	0	0	333
9	0	0	0	0	623
10	0	0	0	0	347
11	0	0	0	0	626
12	0	0	0	0	342
13	0	0	0	0	623
14	0	0	0	0	335
15	0	0	0	0	625
0	0	0	0	0	341
1	0	0	0	0	626
2	0	0	0	0	348
3	0	0	0	0	627
4	0	0	0	0	344
5	0	0	0	0	628
6	0	0	0	0	335
7	0	0	0	0	627
8	0	0	0	0	341
9	0	0	0	0	621
10	0	0	0	0	334
11	0	0	0	0	627
12	0	0	0	0	343
13	0	0	0	0	623
14	0	0	0	0	334
15	0	0	0	0	621
0	0	0	0	0	332
1	0	0	0	0	623
2	0	0	0	0	341
3	0	0	0	0	620
4	0	0	0	0	343
5	0	0	0	0	618
6	0	0	0	0	338
7	0	0	0	0	625
8	0	0	0	0	345
9	0	0	0	0	627
10	0	0	0	0	341
11	0	0	0	0	621
12	0	0	0	0	335
13	0	0	0	0	632
14	0	0	0	0	337
15	0	0	0	0	625
0	0	0	0	0	335
1	0	0	0	0	623
2	0	0	0	0	343
3	0	0	0	0	625
4	0	0	0	0	341
5	0	0	0	0	622
6	0	0	0	0	339
7	0	0	0	0	624
8	0	0	0	0	337
9	0	0	0	0	627
10	0	0	0	0	332
11	0	0	0	0	615
12	0	0	0	0	341
13	0	0	0	0	625
14	0	0	0	0	339
15	0	0	0	0	624
0	0	0	0	0	344
1	0	0	0	0	631
2	0	0	0	0	340
3	0	0	0	0	631
4	0	0	0	0	341
5	0	0	0	0	620
6	0	0	0	0	341
7	0	0	0	0	621
8	0	0	0	0	334
9	0	0	0	0	628
10	0	0	0	0	341
11	0	0	0	0	614
12	0	0	0	0	339
13	0	0	0	0	620
14	0	0	0	0	338
15	0	0	0	0	622
0	0	0	0	0	342
1	0	0	0	0	630
2	0	0	0	0	334
3	0	0	0	0	619
4	0	0	0	0	333
5	0	0	0	0	625
6	0	0	0	0	334
7	0	0	0	0	626
8	0	0	0	0	340
9	0	0	0	0	630
10	0	0	0	0	339
11	0	0	0	0	625
12	0	0	0	0	349
13	0	0	0	0	629
14	0	0	0	0	335
15	0	0	0	0	618
0	0	0	0	0	345
1	0	0	0	0	625
2	0	0	0	0	334
3	0	0	0	0	630
4	0	0	0	0	335
5	0	0	0	0	621
6	0	0	0	0	338
7	0	0	0	0	629
8	0	0	0	0	343
9	0	0	0	0	623
10	0	0	0	0	334
11	0	0	0	0	623
12	0	0	0	0	333
13	0	0	0	0	630
14	0	0	0	0	340
15	0	0	0	0	627
0	0	0	0	0	339
1	0	0	0	0	623
2	0	0	0	0	340
3	0	0	0	0	625
4	0	0	0	0	344
5	0	0	0	0	622
6	0	0	0	0	339
7	0	0	0	0	628
8	0	0	0	0	332
9	0	0	0	0	625
10	0	0	0	0	332
11	0	0	0	0	624
12	0	0	0	0	341
13	0	0	0	0	620
14	0	0	0	0	340
15	0	0	0	0	627
0	0	0	0	0	338
1	0	0	0	0	631
2	0	0	0	0	342
3	0	0	0	0	627
4	0	0	0	0	337
5	0	0	0	0	627
6	0	0	0	0	335
7	0	0	0	0	624
8	0	0	0	0	339
9	0	0	0	0	624
10	0	0	0	0	339
11	0	0	0	0	627
12	0	0	0	0	341
13	0	0	0	0	628
14	0	0	0	0	339
15	0	0	0	0	633
0	0	0	0	0	335
1	0	0	0	0	621
2	0	0	0	0	344
3	0	0	0	0	628
4	0	0	0	0	335
5	0	0	0	0	622
6	0	0	0	0	331
7	0	0	0	0	625
8	0	0	0	0	341
9	0	0	0	0	629
10	0	0	0	0	344
11	0	0	0	0	624
12	0	0	0	0	336
13	0	0	0	0	625
14	0	0	0	0	334
15	0	0	0	0	629
0	0	0	0	0	341
1	0	0	0	0	627
2	0	0	0	0	338
3	0	0	0	0	634
4	0	0	0	0	332
5	0	0	0	0	624
6	0	0	0	0	341
7	0	0	0	0	615
8	0	0	0	0	334
9	0	0	0	0	619
10	0	0	0	0	343
11	0	0	0	0	626
12	0	0	0	0	333
13	0	0	0	0	633
14	0	0	0	0	349
15	0	0	0	0	627
0	0	0	0	0	344
1	0	0	0	0	624
2	0	0	0	0	339
3	0	0	0	0	625
4	0	0	0	0	341
5	0	0	0	0	635
6	0	0	0	0	330
7	0	0	0	0	621
8	0	0	0	0	329
9	0	0	0	0	622
10	0	0	0	0	337
11	0	0	0	0	623
12	0	0	0	0	333
13	0	0	0	0	624
14	0	0	0	0	343
15	0	0	0	0	627
0	0	0	0	0	335
1	0	0	0	0	629
2	0	0	0	0	340
3	0	0	0	0	624
4	0	0	0	0	338
5	0	0	0	0	621
6	0	0	0	0	337
7	0	0	0	0	620
8	0	0	0	0	337
9	0	0	0	0	626
10	0	0	0	0	332
11	0	0	0	0	626
12	0	0	0	0	339
13	0	0	0	0	627
14	0	0	0	0	340
15	0	0	0	0	619
0	0	0	0	0	344
1	0	0	0	0	620
2	0	0	0	0	331
3	0	0	0	0	621
4	0	0	0	0	335
5	0	0	0	0	625
6	0	0	0	0	343
7	0	0	0	0	617
8	0	0	0	0	335
9	0	0	0	0	620
10	0	0	0	0	335
11	0	0	0	0	626
12	0	0	0	0	332
13	0	0	0	0	629
14	0	0	0	0	341
15	0	0	0	0	619
0	0	0	0	0	342
1	0	0	0	0	629
2	0	0	0	0	344
3	0	0	0	0	619
4	0	0	0	0	338
5	0	0	0	0	621
6	0	0	0	0	339
7	0	0	0	0	624
8	0	0	0	0	338
9	0	0	0	0	620
10	0	0	0	0	339
11	0	0	0	0	629
12	0	0	0	0	337
13	0	0	0	0	624
14	0	0	0	0	329
15	0	0	0	0	619
0	0	0	0	0	342
1	0	0	0	0	624
2	0	0	0	0	339
3	0	0	0	0	626
4	0	0	0	0	339
5	0	0	0	0	626
6	0	0	0	0	349
7	0	0	0	0	629
8	0	0	0	0	332
9	0	0	0	0	623
10	0	0	0	0	336
11	0	0	0	0	627
12	0	0	0	0	332
13	0	0	0	0	618
14	0	0	0	0	339
15	0	0	0	0	625
0	0	0	0	0	336
1	0	0	0	0	624
2	0	0	0	0	344
3	0	0	0	0	624
4	0	0	0	0	338
5	0	0	0	0	625
6	0	0	0	0	339
7	0	0	0	0	627
8	0	0	0	0	339
9	0	0	0	0	624
10	0	0	0	0	340
11	0	0	0	0	627
12	0	0	0	0	329
13	0	0	0	0	629
14	0	0	0	0	345
15	0	0	0	0	625
0	0	0	0	0	335
1	0	0	0	0	628
2	0	0	0	0	339
3	0	0	0	0	619
4	0	0	0	0	343
5	0	0	0	0	623
6	0	0	0	0	340
7	0	0	0	0	631
8	0	0	0	0	339
9	0	0	0	0	620
10	0	0	0	0	333
11	0	0	0	0	627
12	0	0	0	0	342
13	0	0	0	0	626
14	0	0	0	0	331
15	0	0	0	0	626
0	0	0	0	0	335
1	0	0	0	0	630
2	0	0	0	0	339
3	0	0	0	0	625
4	0	0	0	0	330
5	0	0	0	0	626
6	0	0	0	0	343
7	0	0	0	0	616
8	0	0	0	0	335
9	0	0	0	0	624
10	0	0	0	0	338
11	0	0	0	0	621
12	0	0	0	0	335
13	0	0	0	0	621
14	0	0	0	0	337
15	0	0	0	0	623
0	0	0	0	0	334
1	0	0	0	0	625
2	0	0	0	0	331
3	0	0	0	0	631
4	0	0	0	0	335
5	0	0	0	0	627
6	0	0	0	0	342
7	0	0	0	0	619
8	0	0	0	0	332
9	0	0	0	0	629
10	0	0	0	0	338
11	0	0	0	0	624
12	0	0	0	0	338
13	0	0	0	0	624
14	0	0	0	0	337
15	0	0	0	0	623
0	0	0	0	0	336
1	0	0	0	0	630
2	0	0	0	0	334
3	0	0	0	0	627
4	0	0	0	0	330
5	0	0	0	0	630
6	0	0	0	0	338
7	0	0	0	0	625
8	0	0	0	0	337
9	0	0	0	0	626
10	0	0	0	0	341
11	0	0	0	0	628
12	0	0	0	0	335
13	0	0	0	0	625
14	0	0	0	0	335
15	0	0	0	0	628
0	0	0	0	0	335
1	0	0	0	0	628
2	0	0	0	0	338
3	0	0	0	0	620
4	0	0	0	0	331
5	0	0	0	0	623
6	0	0	0	0	342
7	0	0	0	0	627
8	0	0	0	0	330
9	0	0	0	0	631
10	0	0	0	0	343
11	0	0	0	0	624
12	0	0	0	0	332
13	0	0	0	0	619
14	0	0	0	0	333
15	0	0	0	0	623
0	0	0	0	0	336
1	0	0	0	0	626
2	0	0	0	0	335
3	0	0	0	0	625
4	0	0	0	0	334
5	0	0	0	0	625
6	0	0	0	0	337
7	0	0	0	0	630
8	0	0	0	0	342
9	0	0	0	0	623
10	0	0	0	0	335
11	0	0	0	0	624
12	0	0	0	0	333
13	0	0	0	0	620
14	0	0	0	0	338
15	0	0	0	0	623
0	0	0	0	0	339
1	0	0	0	0	628
2	0	0	0	0	338
3	0	0	0	0	624
4	0	0	0	0	341
5	0	0	0	0	622
6	0	0	0	0	336
7	0	0	0	0	623
8	0	0	0	0	337
9	0	0	0	0	625
10	0	0	0	0	339
11	0	0	0	0	623
12	0	0	0	0	341
13	0	0	0	0	627
14	0	0	0	0	344
15	0	0	0	0	619
0	0	0	0	0	331
1	0	0	0	0	626
2	0	0	0	0	338
3	0	0	0	0	629
4	0	0	0	0	341
5	0	0	0	0	623
6	0	0	0	0	331
7	0	0	0	0	628
8	0	0	0	0	334
9	0	0	0	0	619
10	0	0	0	0	335
11	0	0	0	0	627
12	0	0	0	0	344
13	0	0	0	0	619
14	0	0	0	0	339
15	0	0	0	0	623
0	0	0	0	0	333
1	0	0	0	0	623
2	0	0	0	0	331
3	0	0	0	0	628
4	0	0	0	0	330
5	0	0	0	0	622
6	0	0	0	0	330
7	0	0	0	0	622
8	0	0	0	0	339
9	0	0	0	0	630
10	0	0	0	0	331
11	0	0	0	0	628
12	0	0	0	0	335
13	0	0	0	0	623
14	0	0	0	0	334
15	0	0	0	0	616
0	0	0	0	0	341
1	0	0	0	0	624
2	0	0	0	0	334
3	0	0	0	0	628
4	0	0	0	0	335
5	0	0	0	0	632
6	0	0	0	0	339
7	0	0	0	0	619
8	0	0	0	0	344
9	0	0	0	0	620
10	0	0	0	0	341
11	0	0	0	0	619
12	0	0	0	0	345
13	0	0	0	0	626
14	0	0	0	0	338
15	0	0	0	0	621
0	0	0	0	0	335
1	0	0	0	0	627
2	0	0	0	0	340
3	0	0	0	0	622
4	0	0	0	0	336
5	0	0	0	0	621
6	0	0	0	0	341
7	0	0	0	0	628
8	0	0	0	0	333
9	0	0	0	0	621
10	0	0	0	0	344
11	0	0	0	0	619
12	0	0	0	0	333
13	0	0	0	0	623
14	0	0	0	0	332
15	0	0	0	0	623
0	0	0	0	0	335
1	0	0	0	0	627
2	0	0	0	0	342
3	0	0	0	0	626
4	0	0	0	0	343
5	0	0	0	0	629
6	0	0	0	0	332
7	0	0	0	0	621
8	0	0	0	0	332
9	0	0	0	0	632
10	0	0	0	0	336
11	0	0	0	0	628
12	0	0	0	0	339
13	0	0	0	0	627
14	0	0	0	0	340
15	0	0	0	0	623
0	0	0	0	0	332
1	0	0	0	0	623
2	0	0	0	0	341
3	0	0	0	0	630
4	0	0	0	0	343
5	0	0	0	0	620
6	0	0	0	0	335
7	0	0	0	0	626
8	0	0	0	0	335
9	0	0	0	0	622
10	0	0	0	0	333
11	0	0	0	0	619
12	0	0	0	0	338
13	0	0	0	0	625
14	0	0	0	0	334
15	0	0	0	0	627
0	0	0	0	0	338
1	0	0	0	0	631
2	0	0	0	0	340
3	0	0	0	0	621
4	0	0	0	0	341
5	0	0	0	0	622
6	0	0	0	0	337
7	0	0	0	0	628
8	0	0	0	0	326
9	0	0	0	0	627
10	0	0	0	0	341
11	0	0	0	0	621
12	0	0	0	0	338
13	0	0	0	0	617
14	0	0	0	0	332
15	0	0	0	0	620
0	0	0	0	0	337
1	0	0	0	0	626
2	0	0	0	0	337
3	0	0	0	0	619
4	0	0	0	0	340
5	0	0	0	0	625
6	0	0	0	0	339
7	0	0	0	0	622
8	0	0	0	0	338
9	0	0	0	0	626
10	0	0	0	0	336
11	0	0	0	0	626
12	0	0	0	0	343
13	0	0	0	0	623
14	0	0	0	0	336
15	0	0	0	0	622
0	0	0	0	0	346
1	0	0	0	0	622
2	0	0	0	0	331
3	0	0	0	0	621
4	0	0	0	0	338
5	0	0	0	0	636
6	0	0	0	0	340
7	0	0	0	0	626
8	0	0	0	0	336
9	0	0	0	0	626
10	0	0	0	0	333
11	0	0	0	0	623
12	0	0	0	0	335
13	0	0	0	0	629
14	0	0	0	0	338
15	0	0	0	0	629
0	0	0	0	0	340
1	0	0	0	0	624
2	0	0	0	0	338
3	0	0	0	0	625
4	0	0	0	0	335
5	0	0	0	0	624
6	0	0	0	0	336
7	0	0	0	0	627
8	0	0	0	0	335
9	0	0	0	0	626
10	0	0	0	0	333
11	0	0	0	0	624
12	0	0	0	0	338
13	0	0	0	0	620
14	0	0	0	0	336
15	0	0	0	0	623
0	0	0	0	0	335
1	0	0	0	0	628
2	0	0	0	0	341
3	0	0	0	0	630
4	0	0	0	0	334
5	0	0	0	0	624
6	0	0	0	0	344
7	0	0	0	0	619
8	0	0	0	0	339
9	0	0	0	0	626
10	0	0	0	0	329
11	0	0	0	0	623
12	0	0	0	0	335
13	0	0	0	0	632
14	0	0	0	0	338
15	0	0	0	0	624
0	0	0	0	0	337
1	0	0	0	0	628
2	0	0	0	0	334
3	0	0	0	0	629
4	0	0	0	0	332
5	0	0	0	0	624
6	0	0	0	0	331
7	0	0	0	0	627
8	0	0	0	0	339
9	0	0	0	0	623
10	0	0	0	0	335
11	0	0	0	0	617
12	0	0	0	0	336
13	0	0	0	0	621
14	0	0	0	0	332
15	0	0	0	0	627
0	0	0	0	0	335
1	0	0	0	0	625
2	0	0	0	0	325
3	0	0	0	0	624
4	0	0	0	0	338
5	0	0	0	0	615
6	0	0	0	0	335
7	0	0	0	0	624
8	0	0	0	0	337
9	0	0	0	0	619
10	0	0	0	0	332
11	0	0	0	0	621
12	0	0	0	0	343
13	0	0	0	0	623
14	0	0	0	0	339
15	0	0	0	0	626
0	0	0	0	0	337
1	0	0	0	0	626
2	0	0	0	0	335
3	0	0	0	0	620
4	0	0	0	0	333
5	0	0	0	0	620
6	0	0	0	0	338
7	0	0	0	0	618
8	0	0	0	0	332
9	0	0	0	0	624
10	0	0	0	0	339
11	0	0	0	0	626
12	0	0	0	0	332
13	0	0	0	0	624
14	0	0	0	0	335
15	0	0	0	0	620
0	0	0	0	0	335
1	0	0	0	0	621
2	0	0	0	0	343
3	0	0	0	0	628
4	0	0	0	0	334
5	0	0	0	0	619
6	0	0	0	0	333
7	0	0	0	0	627
8	0	0	0	0	339
9	0	0	0	0	622
10	0	0	0	0	344
11	0	0	0	0	624
12	0	0	0	0	334
13	0	0	0	0	630
14	0	0	0	0	339
15	0	0	0	0	621
0	0	0	0	0	340
1	0	0	0	0	622
2	0	0	0	0	338
3	0	0	0	0	623
4	0	0	0	0	337
5	0	0	0	0	630
6	0	0	0	0	337
7	0	0	0	0	630
8	0	0	0	0	331
9	0	0	0	0	626
10	0	0	0	0	343
11	0	0	0	0	622
12	0	0	0	0	333
13	0	0	0	0	617
14	0	0	0	0	339
15	0	0	0	0	627
0	0	0	0	0	341
1	0	0	0	0	627
2	0	0	0	0	343
3	0	0	0	0	625
4	0	0	0	0	339
5	0	0	0	0	622
6	0	0	0	0	341
7	0	0	0	0	619
8	0	0	0	0	336
9	0	0	0	0	627
10	0	0	0	0	340
11	0	0	0	0	621
12	0	0	0	0	334
13	0	0	0	0	626
14	0	0	0	0	338
15	0	0	0	0	625
0	0	0	0	0	332
1	0	0	0	0	623
2	0	0	0	0	335
3	0	0	0	0	628
4	0	0	0	0	337
5	0	0	0	0	627
6	0	0	0	0	335
7	0	0	0	0	629
8	0	0	0	0	338
9	0	0	0	0	624
10	0	0	0	0	337
11	0	0	0	0	631
12	0	0	0	0	337
13	0	0	0	0	615
14	0	0	0	0	339
15	0	0	0	0	630
0	0	0	0	0	339
1	0	0	0	0	624
2	0	0	0	0	339
3	0	0	0	0	616
4	0	0	0	0	338
5	0	0	0	0	621
6	0	0	0	0	340
7	0	0	0	0	621
8	0	0	0	0	336
9	0	0	0	0	627
10	0	0	0	0	331
11	0	0	0	0	618
12	0	0	0	0	339
13	0	0	0	0	627
14	0	0	0	0	341
15	0	0	0	0	626
0	0	0	0	0	334
1	0	0	0	0	629
2	0	0	0	0	341
3	0	0	0	0	620
4	0	0	0	0	340
5	0	0	0	0	629
6	0	0	0	0	337
7	0	0	0	0	623
8	0	0	0	0	339
9	0	0	0	0	627
10	0	0	0	0	336
11	0	0	0	0	631
12	0	0	0	0	333
13	0	0	0	0	623
14	0	0	0	0	346
15	0	0	0	0	627
0	0	0	0	0	337
1	0	0	0	0	631
2	0	0	0	0	336
3	0	0	0	0	624
4	0	0	0	0	330
5	0	0	0	0	618
6	0	0	0	0	332
7	0	0	0	0	623
8	0	0	0	0	336
9	0	0	0	0	618
10	0	0	0	0	346
11	0	0	0	0	627
12	0	0	0	0	334
13	0	0	0	0	618
14	0	0	0	0	335
15	0	0	0	0	621
0	0	0	0	0	339
1	0	0	0	0	627
2	0	0	0	0	332
3	0	0	0	0	623
4	0	0	0	0	337
5	0	0	0	0	619
6	0	0	0	0	336
7	0	0	0	0	626
8	0	0	0	0	341
9	0	0	0	0	621
10	0	0	0	0	335
11	0	0	0	0	627
12	0	0	0	0	338
13	0	0	0	0	623
14	0	0	0	0	342
15	0	0	0	0	622
0	0	0	0	0	337
1	0	0	0	0	622
2	0	0	0	0	333
3	0	0	0	0	627
4	0	0	0	0	339
5	0	0	0	0	617
6	0	0	0	0	336
7	0	0	0	0	623
8	0	0	0	0	339
9	0	0	0	0	621
10	0	0	0	0	333
11	0	0	0	0	627
12	0	0	0	0	335
13	0	0	0	0	620
14	0	0	0	0	343
15	0	0	0	0	621
0	0	0	0	0	334
1	0	0	0	0	619
2	0	0	0	0	340
3	0	0	0	0	619
4	0	0	0	0	338
5	0	0	0	0	624
6	0	0	0	0	338
7	0	0	0	0	621
8	0	0	0	0	340
9	0	0	0	0	623
10	0	0	0	0	333
11	0	0	0	0	626
12	0	0	0	0	338
13	0	0	0	0	624
14	0	0	0	0	335
15	0	0	0	0	617
0	0	0	0	0	338
1	0	0	0	0	626
2	0	0	0	0	333
3	0	0	0	0	628
4	0	0	0	0	331
5	0	0	0	0	626
6	0	0	0	0	338
7	0	0	0	0	620
8	0	0	0	0	337
9	0	0	0	0	622
10	0	0	0	0	338
11	0	0	0	0	626
12	0	0	0	0	339
13	0	0	0	0	629
14	0	0	0	0	331
15	0	0	0	0	629
0	0	0	0	0	337
1	0	0	0	0	627
2	0	0	0	0	340
3	0	0	0	0	626
4	0	0	0	0	338
5	0	0	0	0	623
6	0	0	0	0	339
7	0	0	0	0	623
8	0	0	0	0	335
9	0	0	0	0	620
10	0	0	0	0	339
11	0	0	0	0	617
12	0	0	0	0	335
13	0	0	0	0	623
14	0	0	0	0	329
15	0	0	0	0	620
0	0	0	0	0	334
1	0	0	0	0	619
2	0	0	0	0	335
3	0	0	0	0	627
4	0	0	0	0	343
5	0	0	0	0	624
6	0	0	0	0	337
7	0	0	0	0	623
8	0	0	0	0	330
9	0	0	0	0	623
10	0	0	0	0	332
11	0	0	0	0	628
12	0	0	0	0	338
13	0	0	0	0	626
14	0	0	0	0	335
15	0	0	0	0	620
0	0	0	0	0	334
1	0	0	0	0	617
2	0	0	0	0	336
3	0	0	0	0	618
4	0	0	0	0	336