# OpenSignals Text File Format. Version 1
# {"84:BA:20:5E:FF:7F": {"position": 0, "device": "bitalino_rev", "device name": "84:BA:20:5E:FF:7F", "device connection": "BTH84:BA:20:5E:FF:7F", "sampling rate": 100, "resolution": [4, 1, 1, 1, 1, 10], "firmware version": 1282, "comments": "", "keywords": "", "mode": 0, "sync interval": 2, "date": "2024-3-4", "time": "11:17:3.215", "channels": [6], "sensor": ["LUX"], "label": ["A6"], "column": ["nSeq", "I1", "I2", "O1", "O2", "A6"], "special": [{}], "digital IO": [0, 0, 1, 1]}}
# EndOfHeader
0	0	0	0	0	79	
1	0	0	0	0	79	
2	0	0	0	0	79	
3	0	0	0	0	77	
4	0	0	0	0	78	
5	0	0	0	0	79	
6	0	0	0	0	78	
7	0	0	0	0	77	
8	0	0	0	0	79	
9	0	0	0	0	79	
10	0	0	0	0	79	
11	0	0	0	0	78	
12	0	0	0	0	79	
13	0	0	0	0	80	
14	0	0	0	0	79	
15	0	0	0	0	78	
0	0	0	0	0	79	
1	0	0	0	0	80	
2	0	0	0	0	79	
3	0	0	0	0	78	
4	0	0	0	0	79	
5	0	0	0	0	80	
6	0	0	0	0	79	
7	0	0	0	0	78	
8	0	0	0	0	79	
9	0	0	0	0	79	
10	0	0	0	0	78	
11	0	0	0	0	78	
12	0	0	0	0	79	
13	0	0	0	0	80	
14	0	0	0	0	78	
15	0	0	0	0	78	
0	0	0	0	0	79	
1	0	0	0	0	80	
2	0	0	0	0	79	
3	0	0	0	0	78	
4	0	0	0	0	79	
5	0	0	0	0	80	
6	0	0	0	0	79	
7	0	0	0	0	78	
8	0	0	0	0	79	
9	0	0	0	0	79	
10	0	0	0	0	79	
11	0	0	0	0	77	
12	0	0	0	0	79	
13	0	0	0	0	80	
14	0	0	0	0	78	
15	0	0	0	0	77	
0	0	0	0	0	78	
1	0	0	0	0	79	
2	0	0	0	0	78	
3	0	0	0	0	77	
4	0	0	0	0	78	
5	0	0	0	0	80	
6	0	0	0	0	79	
7	0	0	0	0	78	
8	0	0	0	0	79	
9	0	0	0	0	80	
10	0	0	0	0	79	
11	0	0	0	0	78	
12	0	0	0	0	79	
13	0	0	0	0	80	
14	0	0	0	0	79	
15	0	0	0	0	78	
0	0	0	0	0	79	
1	0	0	0	0	80	
2	0	0	0	0	79	
3	0	0	0	0	78	
4	0	0	0	0	79	
5	0	0	0	0	79	
6	0	0	0	0	78	
7	0	0	0	0	78	
8	0	0	0	0	79	
9	0	0	0	0	80	
10	0	0	0	0	79	
11	0	0	0	0	78	
12	0	0	0	0	79	
13	0	0	0	0	80	
14	0	0	0	0	79	
15	0	0	0	0	78	
0	0	0	0	0	79	
1	0	0	0	0	80	
2	0	0	0	0	79	
3	0	0	0	0	78	
4	0	0	0	0	79	
5	0	0	0	0	80	
6	0	0	0	0	79	
7	0	0	0	0	78	
8	0	0	0	0	79	
9	0	0	0	0	80	
10	0	0	0	0	79	
11	0	0	0	0	78	
12	0	0	0	0	79	
13	0	0	0	0	80	
14	0	0	0	0	79	
15	0	0	0	0	78	
0	0	0	0	0	79	
1	0	0	0	0	80	
2	0	0	0	0	79	
3	0	0	0	0	78	
4	0	0	0	0	79	
5	0	0	0	0	80	
6	0	0	0	0	79	
7	0	0	0	0	78	
8	0	0	0	0	79	
9	0	0	0	0	80	
10	0	0	0	0	79	
11	0	0	0	0	78	
12	0	0	0	0	79	
13	0	0	0	0	80	
14	0	0	0	0	79	
15	0	0	0	0	78	
0	0	0	0	0	79	
1	0	0	0	0	80	
2	0	0	0	0	79	
3	0	0	0	0	78	
4	0	0	0	0	79	
5	0	0	0	0	80	
6	0	0	0	0	79	
7	0	0	0	0	78	
8	0	0	0	0	79	
9	0	0	0	0	81	
10	0	0	0	0	79	
11	0	0	0	0	78	
12	0	0	0	0	79	
13	0	0	0	0	81	
14	0	0	0	0	79	
15	0	0	0	0	78	
0	0	0	0	0	79	
1	0	0	0	0	80	
2	0	0	0	0	79	
3	0	0	0	0	78	
4	0	0	0	0	79	
5	0	0	0	0	80	
6	0	0	0	0	79	
7	0	0	0	0	78	
8	0	0	0	0	79	
9	0	0	0	0	80	
10	0	0	0	0	79	
11	0	0	0	0	78	
12	0	0	0	0	79	
13	0	0	0	0	80	
14	0	0	0	0	79	
15	0	0	0	0	78	
0	0	0	0	0	79	
1	0	0	0	0	80	
2	0	0	0	0	79	
3	0	0	0	0	78	
4	0	0	0	0	79	
5	0	0	0	0	81	
6	0	0	0	0	79	
7	0	0	0	0	78	
8	0	0	0	0	79	
9	0	0	0	0	80	
10	0	0	0	0	79	
11	0	0	0	0	78	
12	0	0	0	0	79	
13	0	0	0	0	80	
14	0	0	0	0	79	
15	0	0	0	0	78	
0	0	0	0	0	79	
1	0	0	0	0	80	
2	0	0	0	0	79	
3	0	0	0	0	78	
4	0	0	0	0	79	
5	0	0	0	0	81	
6	0	0	0	0	79	
7	0	0	0	0	79	
8	0	0	0	0	79	
9	0	0	0	0	80	
10	0	0	0	0	79	
11	0	0	0	0	78	
12	0	0	0	0	79	
13	0	0	0	0	80	
14	0	0	0	0	79	
15	0	0	0	0	78	
0	0	0	0	0	79	
1	0	0	0	0	80	
2	0	0	0	0	79	
3	0	0	0	0	78	
4	0	0	0	0	79	
5	0	0	0	0	80	
6	0	0	0	0	79	
7	0	0	0	0	79	
8	0	0	0	0	79	
9	0	0	0	0	81	
10	0	0	0	0	79	
11	0	0	0	0	79	
12	0	0	0	0	79	
13	0	0	0	0	81	
14	0	0	0	0	79	
15	0	0	0	0	79	
0	0	0	0	0	79	
1	0	0	0	0	81	
2	0	0	0	0	79	
3	0	0	0	0	79	
4	0	0	0	0	79	
5	0	0	0	0	81	
6	0	0	0	0	79	
7	0	0	0	0	78	
8	0	0	0	0	79	
9	0	0	0	0	80	
10	0	0	0	0	79	
11	0	0	0	0	78	
12	0	0	0	0	79	
13	0	0	0	0	81	
14	0	0	0	0	79	
15	0	0	0	0	79	
0	0	0	0	0	79	
1	0	0	0	0	81	
2	0	0	0	0	79	
3	0	0	0	0	79	
4	0	0	0	0	79	
5	0	0	0	0	81	
6	0	0	0	0	80	
7	0	0	0	0	79	
8	0	0	0	0	80	
9	0	0	0	0	81	
10	0	0	0	0	79	
11	0	0	0	0	78	
12	0	0	0	0	79	
13	0	0	0	0	81	
14	0	0	0	0	79	
15	0	0	0	0	78	
0	0	0	0	0	79	
1	0	0	0	0	81	
2	0	0	0	0	79	
3	0	0	0	0	79	
4	0	0	0	0	79	
5	0	0	0	0	81	
6	0	0	0	0	79	
7	0	0	0	0	79	
8	0	0	0	0	79	
9	0	0	0	0	81	
10	0	0	0	0	79	
11	0	0	0	0	79	
12	0	0	0	0	80	
13	0	0	0	0	81	
14	0	0	0	0	79	
15	0	0	0	0	79	
0	0	0	0	0	79	
1	0	0	0	0	81	
2	0	0	0	0	79	
3	0	0	0	0	79	
4	0	0	0	0	79	
5	0	0	0	0	81	
6	0	0	0	0	79	
7	0	0	0	0	79	
8	0	0	0	0	80	
9	0	0	0	0	81	
10	0	0	0	0	80	
11	0	0	0	0	79	
12	0	0	0	0	80	
13	0	0	0	0	81	
14	0	0	0	0	80	
15	0	0	0	0	79	
0	0	0	0	0	80	
1	0	0	0	0	81	
2	0	0	0	0	80	
3	0	0	0	0	79	
4	0	0	0	0	80	
5	0	0	0	0	81	
6	0	0	0	0	80	
7	0	0	0	0	79	
8	0	0	0	0	80	
9	0	0	0	0	81	
10	0	0	0	0	79	
11	0	0	0	0	79	
12	0	0	0	0	80	
13	0	0	0	0	81	
14	0	0	0	0	80	
15	0	0	0	0	79	
0	0	0	0	0	80	
1	0	0	0	0	81	
2	0	0	0	0	80	
3	0	0	0	0	79	
4	0	0	0	0	80	
5	0	0	0	0	81	
6	0	0	0	0	80	
7	0	0	0	0	79	
8	0	0	0	0	80	
9	0	0	0	0	81	
10	0	0	0	0	80	
11	0	0	0	0	79	
12	0	0	0	0	80	
13	0	0	0	0	81	
14	0	0	0	0	80	
15	0	0	0	0	79	
0	0	0	0	0	80	
1	0	0	0	0	81	
2	0	0	0	0	80	
3	0	0	0	0	79	
4	0	0	0	0	80	
5	0	0	0	0	81	
6	0	0	0	0	80	
7	0	0	0	0	79	
8	0	0	0	0	80	
9	0	0	0	0	81	
10	0	0	0	0	80	
11	0	0	0	0	79	
12	0	0	0	0	80	
13	0	0	0	0	81	
14	0	0	0	0	80	
15	0	0	0	0	79	
0	0	0	0	0	80	
1	0	0	0	0	81	
2	0	0	0	0	80	
3	0	0	0	0	79	
4	0	0	0	0	80	
5	0	0	0	0	81	
6	0	0	0	0	80	
7	0	0	0	0	79	
8	0	0	0	0	80	
9	0	0	0	0	81	
10	0	0	0	0	80	
11	0	0	0	0	79	
12	0	0	0	0	80	
13	0	0	0	0	81	
14	0	0	0	0	80	
15	0	0	0	0	79	
0	0	0	0	0	80	
1	0	0	0	0	81	
2	0	0	0	0	80	
3	0	0	0	0	79	
4	0	0	0	0	80	
5	0	0	0	0	303	
6	0	0	0	0	454	
7	0	0	0	0	677	
8	0	0	0	0	927	
9	0	0	0	0	480	
10	0	0	0	0	141	
11	0	0	0	0	182	
12	0	0	0	0	251	
13	0	0	0	0	365	
14	0	0	0	0	538	
15	0	0	0	0	778	
0	0	0	0	0	1003	
1	0	0	0	0	124	
2	0	0	0	0	152	
3	0	0	0	0	198	
4	0	0	0	0	278	
5	0	0	0	0	409	
6	0	0	0	0	604	
7	0	0	0	0	849	
8	0	0	0	0	1003	
9	0	0	0	0	131	
10	0	0	0	0	162	
11	0	0	0	0	216	
12	0	0	0	0	308	
13	0	0	0	0	454	
14	0	0	0	0	661	
15	0	0	0	0	901	
0	0	0	0	0	925	
1	0	0	0	0	135	
2	0	0	0	0	169	
3	0	0	0	0	227	
4	0	0	0	0	323	
5	0	0	0	0	479	
6	0	0	0	0	699	
7	0	0	0	0	939	
8	0	0	0	0	444	
9	0	0	0	0	142	
10	0	0	0	0	179	
11	0	0	0	0	242	
12	0	0	0	0	345	
13	0	0	0	0	506	
14	0	0	0	0	721	
15	0	0	0	0	952	
0	0	0	0	0	326	
1	0	0	0	0	142	
2	0	0	0	0	179	
3	0	0	0	0	240	
4	0	0	0	0	339	
5	0	0	0	0	496	
6	0	0	0	0	711	
7	0	0	0	0	943	
8	0	0	0	0	484	
9	0	0	0	0	140	
10	0	0	0	0	177	
11	0	0	0	0	237	
12	0	0	0	0	336	
13	0	0	0	0	488	
14	0	0	0	0	702	
15	0	0	0	0	934	
0	0	0	0	0	607	
1	0	0	0	0	140	
2	0	0	0	0	175	
3	0	0	0	0	236	
4	0	0	0	0	332	
5	0	0	0	0	480	
6	0	0	0	0	685	
7	0	0	0	0	918	
8	0	0	0	0	870	
9	0	0	0	0	135	
10	0	0	0	0	169	
11	0	0	0	0	224	
12	0	0	0	0	313	
13	0	0	0	0	454	
14	0	0	0	0	653	
15	0	0	0	0	885	
0	0	0	0	0	1002	
1	0	0	0	0	133	
2	0	0	0	0	165	
3	0	0	0	0	217	
4	0	0	0	0	305	
5	0	0	0	0	442	
6	0	0	0	0	642	
7	0	0	0	0	880	
8	0	0	0	0	1003	
9	0	0	0	0	132	
10	0	0	0	0	163	
11	0	0	0	0	215	
12	0	0	0	0	301	
13	0	0	0	0	436	
14	0	0	0	0	633	
15	0	0	0	0	869	
0	0	0	0	0	1003	
1	0	0	0	0	131	
2	0	0	0	0	161	
3	0	0	0	0	210	
4	0	0	0	0	293	
5	0	0	0	0	424	
6	0	0	0	0	614	
7	0	0	0	0	851	
8	0	0	0	0	1003	
9	0	0	0	0	129	
10	0	0	0	0	158	
11	0	0	0	0	207	
12	0	0	0	0	287	
13	0	0	0	0	414	
14	0	0	0	0	603	
15	0	0	0	0	841	
0	0	0	0	0	1003	
1	0	0	0	0	129	
2	0	0	0	0	158	
3	0	0	0	0	207	
4	0	0	0	0	290	
5	0	0	0	0	420	
6	0	0	0	0	612	
7	0	0	0	0	848	
8	0	0	0	0	1003	
9	0	0	0	0	129	
10	0	0	0	0	157	
11	0	0	0	0	205	
12	0	0	0	0	286	
13	0	0	0	0	411	
14	0	0	0	0	600	
15	0	0	0	0	838	
0	0	0	0	0	1003	
1	0	0	0	0	129	
2	0	0	0	0	158	
3	0	0	0	0	205	
4	0	0	0	0	285	
5	0	0	0	0	410	
6	0	0	0	0	597	
7	0	0	0	0	832	
8	0	0	0	0	1003	
9	0	0	0	0	127	
10	0	0	0	0	154	
11	0	0	0	0	199	
12	0	0	0	0	274	
13	0	0	0	0	392	
14	0	0	0	0	570	
15	0	0	0	0	799	
0	0	0	0	0	1003	
1	0	0	0	0	125	
2	0	0	0	0	151	
3	0	0	0	0	196	
4	0	0	0	0	270	
5	0	0	0	0	391	
6	0	0	0	0	565	
7	0	0	0	0	798	
8	0	0	0	0	1003	
9	0	0	0	0	125	
10	0	0	0	0	151	
11	0	0	0	0	195	
12	0	0	0	0	267	
13	0	0	0	0	379	
14	0	0	0	0	549	
15	0	0	0	0	779	
0	0	0	0	0	1003	
1	0	0	0	0	123	
2	0	0	0	0	148	
3	0	0	0	0	189	
4	0	0	0	0	256	
5	0	0	0	0	364	
6	0	0	0	0	526	
7	0	0	0	0	750	
8	0	0	0	0	975	
9	0	0	0	0	121	
10	0	0	0	0	145	
11	0	0	0	0	184	
12	0	0	0	0	249	
13	0	0	0	0	353	
14	0	0	0	0	516	
15	0	0	0	0	734	
0	0	0	0	0	956	
1	0	0	0	0	274	
2	0	0	0	0	141	
3	0	0	0	0	178	
4	0	0	0	0	239	
5	0	0	0	0	337	
6	0	0	0	0	481	
7	0	0	0	0	687	
8	0	0	0	0	917	
9	0	0	0	0	855	
10	0	0	0	0	135	
11	0	0	0	0	167	
12	0	0	0	0	221	
13	0	0	0	0	306	
14	0	0	0	0	439	
15	0	0	0	0	629	
0	0	0	0	0	857	
1	0	0	0	0	1004	
2	0	0	0	0	128	
3	0	0	0	0	156	
4	0	0	0	0	204	
5	0	0	0	0	277	
6	0	0	0	0	391	
7	0	0	0	0	566	
8	0	0	0	0	786	
9	0	0	0	0	1003	
10	0	0	0	0	121	
11	0	0	0	0	145	
12	0	0	0	0	185	
13	0	0	0	0	250	
14	0	0	0	0	351	
15	0	0	0	0	507	
0	0	0	0	0	720	
1	0	0	0	0	946	
2	0	0	0	0	437	
3	0	0	0	0	139	
4	0	0	0	0	176	
5	0	0	0	0	235	
6	0	0	0	0	328	
7	0	0	0	0	472	
8	0	0	0	0	674	
9	0	0	0	0	901	
10	0	0	0	0	989	
11	0	0	0	0	132	
12	0	0	0	0	164	
13	0	0	0	0	214	
14	0	0	0	0	294	
15	0	0	0	0	422	
0	0	0	0	0	609	
1	0	0	0	0	840	
2	0	0	0	0	1003	
3	0	0	0	0	126	
4	0	0	0	0	154	
5	0	0	0	0	199	
6	0	0	0	0	270	
7	0	0	0	0	381	
8	0	0	0	0	551	
9	0	0	0	0	767	
10	0	0	0	0	980	
11	0	0	0	0	119	
12	0	0	0	0	143	
13	0	0	0	0	183	
14	0	0	0	0	243	
15	0	0	0	0	341	
0	0	0	0	0	492	
1	0	0	0	0	701	
2	0	0	0	0	927	
3	0	0	0	0	776	
4	0	0	0	0	136	
5	0	0	0	0	170	
6	0	0	0	0	223	
7	0	0	0	0	310	
8	0	0	0	0	446	
9	0	0	0	0	640	
10	0	0	0	0	872	
11	0	0	0	0	1003	
12	0	0	0	0	130	
13	0	0	0	0	161	
14	0	0	0	0	209	
15	0	0	0	0	289	
0	0	0	0	0	417	
1	0	0	0	0	603	
2	0	0	0	0	835	
3	0	0	0	0	1003	
4	0	0	0	0	127	
5	0	0	0	0	157	
6	0	0	0	0	204	
7	0	0	0	0	282	
8	0	0	0	0	404	
9	0	0	0	0	587	
10	0	0	0	0	818	
11	0	0	0	0	1003	
12	0	0	0	0	126	
13	0	0	0	0	154	
14	0	0	0	0	199	
15	0	0	0	0	275	
0	0	0	0	0	396	
1	0	0	0	0	578	
2	0	0	0	0	808	
3	0	0	0	0	1003	
4	0	0	0	0	124	
5	0	0	0	0	151	
6	0	0	0	0	193	
7	0	0	0	0	262	
8	0	0	0	0	374	
9	0	0	0	0	542	
10	0	0	0	0	768	
11	0	0	0	0	991	
12	0	0	0	0	121	
13	0	0	0	0	147	
14	0	0	0	0	187	
15	0	0	0	0	255	
0	0	0	0	0	358	
1	0	0	0	0	517	
2	0	0	0	0	733	
3	0	0	0	0	955	
4	0	0	0	0	288	
5	0	0	0	0	141	
6	0	0	0	0	175	
7	0	0	0	0	230	
8	0	0	0	0	319	
9	0	0	0	0	457	
10	0	0	0	0	655	
11	0	0	0	0	884	
12	0	0	0	0	1003	
13	0	0	0	0	132	
14	0	0	0	0	161	
15	0	0	0	0	207	
0	0	0	0	0	284	
1	0	0	0	0	401	
2	0	0	0	0	579	
3	0	0	0	0	1001	
4	0	0	0	0	1002	
5	0	0	0	0	222	
6	0	0	0	0	309	
7	0	0	0	0	440	
8	0	0	0	0	630	
9	0	0	0	0	859	
10	0	0	0	0	1003	
11	0	0	0	0	1003	
12	0	0	0	0	1004	
13	0	0	0	0	374	
14	0	0	0	0	277	
15	0	0	0	0	394	
0	0	0	0	0	570	
1	0	0	0	0	791	
2	0	0	0	0	1004	
3	0	0	0	0	1004	
4	0	0	0	0	1004	
5	0	0	0	0	1004	
6	0	0	0	0	247	
7	0	0	0	0	346	
8	0	0	0	0	502	
9	0	0	0	0	711	
10	0	0	0	0	936	
11	0	0	0	0	1003	
12	0	0	0	0	1004	
13	0	0	0	0	1004	
14	0	0	0	0	225	
15	0	0	0	0	312	
0	0	0	0	0	444	
1	0	0	0	0	634	
2	0	0	0	0	861	
3	0	0	0	0	1004	
4	0	0	0	0	1004	
5	0	0	0	0	1004	
6	0	0	0	0	500	
7	0	0	0	0	269	
8	0	0	0	0	379	
9	0	0	0	0	546	
10	0	0	0	0	762	
11	0	0	0	0	972	
12	0	0	0	0	1004	
13	0	0	0	0	1004	
14	0	0	0	0	1004	
15	0	0	0	0	235	
0	0	0	0	0	326	
1	0	0	0	0	465	
2	0	0	0	0	663	
3	0	0	0	0	888	
4	0	0	0	0	1004	
5	0	0	0	0	1004	
6	0	0	0	0	1004	
7	0	0	0	0	211	
8	0	0	0	0	278	
9	0	0	0	0	391	
10	0	0	0	0	556	
11	0	0	0	0	774	
12	0	0	0	0	988	
13	0	0	0	0	1004	
14	0	0	0	0	1004	
15	0	0	0	0	1004	
0	0	0	0	0	237	
1	0	0	0	0	329	
2	0	0	0	0	470	
3	0	0	0	0	667	
4	0	0	0	0	891	
5	0	0	0	0	1004	
6	0	0	0	0	1004	
7	0	0	0	0	1004	
8	0	0	0	0	207	
9	0	0	0	0	281	
10	0	0	0	0	397	
11	0	0	0	0	567	
12	0	0	0	0	786	
13	0	0	0	0	999	
14	0	0	0	0	1004	
15	0	0	0	0	1004	
0	0	0	0	0	1004	
1	0	0	0	0	245	
2	0	0	0	0	342	
3	0	0	0	0	489	
4	0	0	0	0	695	
5	0	0	0	0	922	
6	0	0	0	0	1003	
7	0	0	0	0	1004	
8	0	0	0	0	1004	
9	0	0	0	0	220	
10	0	0	0	0	302	
11	0	0	0	0	430	
12	0	0	0	0	615	
13	0	0	0	0	839	
14	0	0	0	0	1003	
15	0	0	0	0	1004	
0	0	0	0	0	1004	
1	0	0	0	0	837	
2	0	0	0	0	260	
3	0	0	0	0	366	
4	0	0	0	0	524	
5	0	0	0	0	737	
6	0	0	0	0	954	
7	0	0	0	0	1003	
8	0	0	0	0	1004	
9	0	0	0	0	1004	
10	0	0	0	0	231	
11	0	0	0	0	322	
12	0	0	0	0	462	
13	0	0	0	0	662	
14	0	0	0	0	888	
15	0	0	0	0	1003	
0	0	0	0	0	1004	
1	0	0	0	0	1004	
2	0	0	0	0	211	
3	0	0	0	0	290	
4	0	0	0	0	415	
5	0	0	0	0	595	
6	0	0	0	0	824	
7	0	0	0	0	1003	
8	0	0	0	0	1004	
9	0	0	0	0	1004	
10	0	0	0	0	772	
11	0	0	0	0	265	
12	0	0	0	0	374	
13	0	0	0	0	540	
14	0	0	0	0	757	
15	0	0	0	0	972	
0	0	0	0	0	1003	
1	0	0	0	0	1004	
2	0	0	0	0	1004	
3	0	0	0	0	240	
4	0	0	0	0	332	
5	0	0	0	0	475	
6	0	0	0	0	678	
7	0	0	0	0	907	
8	0	0	0	0	1003	
9	0	0	0	0	1004	
10	0	0	0	0	1004	
11	0	0	0	0	220	
12	0	0	0	0	306	
13	0	0	0	0	438	
14	0	0	0	0	628	
15	0	0	0	0	860	
0	0	0	0	0	1004	
1	0	0	0	0	1004	
2	0	0	0	0	1004	
3	0	0	0	0	220	
4	0	0	0	0	281	
5	0	0	0	0	398	
6	0	0	0	0	574	
7	0	0	0	0	799	
8	0	0	0	0	1003	
9	0	0	0	0	1004	
10	0	0	0	0	1004	
11	0	0	0	0	981	
12	0	0	0	0	255	
13	0	0	0	0	359	
14	0	0	0	0	516	
15	0	0	0	0	733	
0	0	0	0	0	952	
1	0	0	0	0	1004	
2	0	0	0	0	1004	
3	0	0	0	0	1004	
4	0	0	0	0	230	
5	0	0	0	0	323	
6	0	0	0	0	459	
7	0	0	0	0	653	
8	0	0	0	0	879	
9	0	0	0	0	1004	
10	0	0	0	0	1000	
11	0	0	0	0	1000	
12	0	0	0	0	999	
13	0	0	0	0	999	
14	0	0	0	0	1000	
15	0	0	0	0	999	
0	0	0	0	0	999	
1	0	0	0	0	1000	
2	0	0	0	0	1000	
3	0	0	0	0	999	
4	0	0	0	0	1000	
5	0	0	0	0	1000	
6	0	0	0	0	999	
7	0	0	0	0	1000	
8	0	0	0	0	1000	
9	0	0	0	0	1000	
10	0	0	0	0	1000	
11	0	0	0	0	1000	
12	0	0	0	0	999	
13	0	0	0	0	1000	
14	0	0	0	0	1000	
15	0	0	0	0	1000	
0	0	0	0	0	999	
1	0	0	0	0	1000	
2	0	0	0	0	999	
3	0	0	0	0	1000	
4	0	0	0	0	1000	
5	0	0	0	0	999	
6	0	0	0	0	1000	
7	0	0	0	0	1000	
8	0	0	0	0	999	
9	0	0	0	0	1000	
10	0	0	0	0	1000	
11	0	0	0	0	999	
12	0	0	0	0	999	
13	0	0	0	0	1000	
14	0	0	0	0	999	
15	0	0	0	0	999	
0	0	0	0	0	1000	
1	0	0	0	0	1000	
2	0	0	0	0	999	
3	0	0	0	0	1000	
4	0	0	0	0	999	
5	0	0	0	0	1000	
6	0	0	0	0	1000	
7	0	0	0	0	1000	
8	0	0	0	0	1000	
9	0	0	0	0	1000	
10	0	0	0	0	1000	
11	0	0	0	0	999	
12	0	0	0	0	1000	
13	0	0	0	0	1000	
14	0	0	0	0	999	
15	0	0	0	0	1000	
0	0	0	0	0	1000	
1	0	0	0	0	1000	
2	0	0	0	0	1000	
3	0	0	0	0	1000	
4	0	0	0	0	999	
5	0	0	0	0	1000	
6	0	0	0	0	1000	
7	0	0	0	0	999	
8	0	0	0	0	1000	
9	0	0	0	0	1000	
10	0	0	0	0	999	
11	0	0	0	0	1000	
12	0	0	0	0	1000	
13	0	0	0	0	999	
14	0	0	0	0	1000	
15	0	0	0	0	1000	
0	0	0	0	0	999	
1	0	0	0	0	1000	
2	0	0	0	0	1000	
3	0	0	0	0	1000	
4	0	0	0	0	1000	
5	0	0	0	0	1000	
6	0	0	0	0	999	
7	0	0	0	0	999	
8	0	0	0	0	1000	
9	0	0	0	0	1000	
10	0	0	0	0	1000	
11	0	0	0	0	1000	
12	0	0	0	0	999	
13	0	0	0	0	1000	
14	0	0	0	0	1000	
15	0	0	0	0	999	
0	0	0	0	0	999	
1	0	0	0	0	1000	
2	0	0	0	0	1000	
3	0	0	0	0	999	
4	0	0	0	0	1000	
5	0	0	0	0	1000	
6	0	0	0	0	999	
7	0	0	0	0	1000	
8	0	0	0	0	1000	
9	0	0	0	0	999	
10	0	0	0	0	1000	
11	0	0	0	0	999	
12	0	0	0	0	999	
13	0	0	0	0	1000	
14	0	0	0	0	1000	
15	0	0	0	0	999	
0	0	0	0	0	1000	
1	0	0	0	0	1000	
2	0	0	0	0	999	
3	0	0	0	0	1000	
4	0	0	0	0	1000	
5	0	0	0	0	1000	
6	0	0	0	0	999	
7	0	0	0	0	1000	
8	0	0	0	0	999	
9	0	0	0	0	1000	
10	0	0	0	0	1000	
11	0	0	0	0	999	
12	0	0	0	0	1000	
13	0	0	0	0	1000	
14	0	0	0	0	999	
15	0	0	0	0	999	
0	0	0	0	0	1000	
1	0	0	0	0	1000	
2	0	0	0	0	1000	
3	0	0	0	0	999	
4	0	0	0	0	999	
5	0	0	0	0	1000	
6	0	0	0	0	1000	
7	0	0	0	0	999	
8	0	0	0	0	999	
9	0	0	0	0	1000	
10	0	0	0	0	999	
11	0	0	0	0	999	
12	0	0	0	0	1000	
13	0	0	0	0	999	
14	0	0	0	0	999	
15	0	0	0	0	999	
0	0	0	0	0	1000	
1	0	0	0	0	999	
2	0	0	0	0	1000	
3	0	0	0	0	999	
4	0	0	0	0	999	
5	0	0	0	0	1000	
6	0	0	0	0	999	
7	0	0	0	0	999	
8	0	0	0	0	999	
9	0	0	0	0	1000	
10	0	0	0	0	999	
11	0	0	0	0	999	
12	0	0	0	0	1000	
13	0	0	0	0	1000	
14	0	0	0	0	1000	
15	0	0	0	0	1000	
0	0	0	0	0	999	
1	0	0	0	0	1000	
2	0	0	0	0	1000	
3	0	0	0	0	999	
4	0	0	0	0	999	
5	0	0	0	0	1000	
6	0	0	0	0	999	
7	0	0	0	0	999	
8	0	0	0	0	1000	
9	0	0	0	0	999	
10	0	0	0	0	999	
11	0	0	0	0	1000	
12	0	0	0	0	999	
13	0	0	0	0	999	
14	0	0	0	0	1000	
15	0	0	0	0	999	
0	0	0	0	0	999	
1	0	0	0	0	1000	
2	0	0	0	0	999	
3	0	0	0	0	999	
4	0	0	0	0	999	
5	0	0	0	0	1000	
6	0	0	0	0	999	
7	0	0	0	0	1000	
8	0	0	0	0	999	
9	0	0	0	0	999	
10	0	0	0	0	1000	
11	0	0	0	0	999	
12	0	0	0	0	999	
13	0	0	0	0	1000	
14	0	0	0	0	999	
15	0	0	0	0	999	
0	0	0	0	0	1000	
1	0	0	0	0	1000	
2	0	0	0	0	999	
3	0	0	0	0	79	
4	0	0	0	0	80	
5	0	0	0	0	82	
6	0	0	0	0	80	
7	0	0	0	0	79	
8	0	0	0	0	80	
9	0	0	0	0	81	
10	0	0	0	0	80	
11	0	0	0	0	79	
12	0	0	0	0	80	
13	0	0	0	0	82	
14	0	0	0	0	80	
15	0	0	0	0	79	
0	0	0	0	0	80	
1	0	0	0	0	82	
2	0	0	0	0	80	
3	0	0	0	0	79	
4	0	0	0	0	80	
5	0	0	0	0	82	
6	0	0	0	0	81	
7	0	0	0	0	80	
8	0	0	0	0	81	
9	0	0	0	0	82	
10	0	0	0	0	81	
11	0	0	0	0	79	
12	0	0	0	0	80	
13	0	0	0	0	82	
14	0	0	0	0	80	
15	0	0	0	0	79	
0	0	0	0	0	80	
1	0	0	0	0	82	
2	0	0	0	0	81	
3	0	0	0	0	79	
4	0	0	0	0	81	
5	0	0	0	0	82	
6	0	0	0	0	81	
7	0	0	0	0	80	
8	0	0	0	0	81	
9	0	0	0	0	82	
10	0	0	0	0	81	
11	0	0	0	0	80	
12	0	0	0	0	81	
13	0	0	0	0	82	
14	0	0	0	0	81	
15	0	0	0	0	80	
0	0	0	0	0	81	
1	0	0	0	0	82	
2	0	0	0	0	81	
3	0	0	0	0	80	
4	0	0	0	0	80	
5	0	0	0	0	82	
6	0	0	0	0	80	
7	0	0	0	0	79	
8	0	0	0	0	80	
9	0	0	0	0	82	
10	0	0	0	0	80	
11	0	0	0	0	79	
12	0	0	0	0	80	
13	0	0	0	0	82	
14	0	0	0	0	81	
15	0	0	0	0	80	
0	0	0	0	0	81	
1	0	0	0	0	82	
2	0	0	0	0	81	
3	0	0	0	0	80	
4	0	0	0	0	81	
5	0	0	0	0	82	
6	0	0	0	0	81	
7	0	0	0	0	80	
8	0	0	0	0	80	
9	0	0	0	0	82	
10	0	0	0	0	81	
11	0	0	0	0	79	
12	0	0	0	0	80	
13	0	0	0	0	82	
14	0	0	0	0	80	
15	0	0	0	0	80	
0	0	0	0	0	81	
1	0	0	0	0	82	
2	0	0	0	0	81	
3	0	0	0	0	80	
4	0	0	0	0	81	
5	0	0	0	0	82	
6	0	0	0	0	81	
7	0	0	0	0	80	
8	0	0	0	0	81	
9	0	0	0	0	82	
10	0	0	0	0	81	
11	0	0	0	0	80	
12	0	0	0	0	81	
13	0	0	0	0	82	
14	0	0	0	0	81	
15	0	0	0	0	80	
0	0	0	0	0	81	
1	0	0	0	0	82	
2	0	0	0	0	81	
3	0	0	0	0	80	
4	0	0	0	0	80	
5	0	0	0	0	82	
6	0	0	0	0	81	
7	0	0	0	0	80	
8	0	0	0	0	81	
9	0	0	0	0	82	
10	0	0	0	0	81	
11	0	0	0	0	80	
12	0	0	0	0	81	
13	0	0	0	0	82	
14	0	0	0	0	81	
15	0	0	0	0	80	
0	0	0	0	0	81	
1	0	0	0	0	82	
2	0	0	0	0	81	
3	0	0	0	0	80	
4	0	0	0	0	81	
5	0	0	0	0	82	
6	0	0	0	0	81	
7	0	0	0	0	79	
8	0	0	0	0	80	
9	0	0	0	0	81	
10	0	0	0	0	80	
11	0	0	0	0	79	
12	0	0	0	0	80	
13	0	0	0	0	82	
14	0	0	0	0	80	
15	0	0	0	0	79	
0	0	0	0	0	80	
1	0	0	0	0	81	
2	0	0	0	0	81	
3	0	0	0	0	79	
4	0	0	0	0	81	
5	0	0	0	0	82	
6	0	0	0	0	80	
7	0	0	0	0	79	
8	0	0	0	0	80	
9	0	0	0	0	82	
10	0	0	0	0	80	
11	0	0	0	0	79	
12	0	0	0	0	80	
13	0	0	0	0	81	
14	0	0	0	0	80	
15	0	0	0	0	79	
0	0	0	0	0	80	
1	0	0	0	0	81	
2	0	0	0	0	80	
3	0	0	0	0	79	
4	0	0	0	0	80	
5	0	0	0	0	82	
6	0	0	0	0	80	
7	0	0	0	0	80	
8	0	0	0	0	81	
9	0	0	0	0	82	
10	0	0	0	0	81	
11	0	0	0	0	80	
12	0	0	0	0	81	
13	0	0	0	0	82	
14	0	0	0	0	80	
15	0	0	0	0	79	
0	0	0	0	0	81	
1	0	0	0	0	82	
2	0	0	0	0	81	
3	0	0	0	0	80	
4	0	0	0	0	81	
5	0	0	0	0	83	
6	0	0	0	0	82	
7	0	0	0	0	81	
8	0	0	0	0	82	
9	0	0	0	0	83	
10	0	0	0	0	82	
11	0	0	0	0	81	
12	0	0	0	0	81	
13	0	0	0	0	82	
14	0	0	0	0	80	
15	0	0	0	0	79	
0	0	0	0	0	80	
1	0	0	0	0	81	
2	0	0	0	0	80	
3	0	0	0	0	79	
4	0	0	0	0	79	
5	0	0	0	0	80	
6	0	0	0	0	78	
7	0	0	0	0	76	
8	0	0	0	0	76	
9	0	0	0	0	78	
10	0	0	0	0	77	
11	0	0	0	0	77	
12	0	0	0	0	79	
13	0	0	0	0	81	
14	0	0	0	0	79	
15	0	0	0	0	78	
0	0	0	0	0	78	
1	0	0	0	0	78	
2	0	0	0	0	75	
3	0	0	0	0	73	
4	0	0	0	0	73	
5	0	0	0	0	73	
6	0	0	0	0	71	
7	0	0	0	0	69	
8	0	0	0	0	69	
9	0	0	0	0	69	
10	0	0	0	0	66	
11	0	0	0	0	63	
12	0	0	0	0	63	
13	0	0	0	0	63	
14	0	0	0	0	60	
15	0	0	0	0	58	
0	0	0	0	0	59	
1	0	0	0	0	60	
2	0	0	0	0	57	
3	0	0	0	0	56	
4	0	0	0	0	56	
5	0	0	0	0	57	
6	0	0	0	0	55	
7	0	0	0	0	52	
8	0	0	0	0	53	
9	0	0	0	0	53	
10	0	0	0	0	51	
11	0	0	0	0	49	
12	0	0	0	0	49	
13	0	0	0	0	50	
14	0	0	0	0	48	
15	0	0	0	0	46	
0	0	0	0	0	46	
1	0	0	0	0	47	
2	0	0	0	0	46	
3	0	0	0	0	44	
4	0	0	0	0	45	
5	0	0	0	0	46	
6	0	0	0	0	45	
7	0	0	0	0	43	
8	0	0	0	0	44	
9	0	0	0	0	46	
10	0	0	0	0	44	
11	0	0	0	0	43	
12	0	0	0	0	44	
13	0	0	0	0	46	
14	0	0	0	0	45	
15	0	0	0	0	44	
0	0	0	0	0	45	
1	0	0	0	0	47	
2	0	0	0	0	46	
3	0	0	0	0	45	
4	0	0	0	0	46	
5	0	0	0	0	47	
6	0	0	0	0	46	
7	0	0	0	0	45	
8	0	0	0	0	47	
9	0	0	0	0	48	
10	0	0	0	0	47	
11	0	0	0	0	46	
12	0	0	0	0	47	
13	0	0	0	0	49	
14	0	0	0	0	48	
15	0	0	0	0	47	
0	0	0	0	0	48	
1	0	0	0	0	50	
2	0	0	0	0	49	
3	0	0	0	0	48	
4	0	0	0	0	49	
5	0	0	0	0	50	
6	0	0	0	0	49	
7	0	0	0	0	48	
8	0	0	0	0	49	
9	0	0	0	0	50	
10	0	0	0	0	48	
11	0	0	0	0	47	
12	0	0	0	0	48	
13	0	0	0	0	49	
14	0	0	0	0	48	
15	0	0	0	0	47	
0	0	0	0	0	48	
1	0	0	0	0	49	
2	0	0	0	0	48	
3	0	0	0	0	46	
4	0	0	0	0	47	
5	0	0	0	0	48	
6	0	0	0	0	47	
7	0	0	0	0	46	
8	0	0	0	0	47	
9	0	0	0	0	60	
10	0	0	0	0	65	
11	0	0	0	0	77	
12	0	0	0	0	97	
13	0	0	0	0	126	
14	0	0	0	0	177	
15	0	0	0	0	127	
0	0	0	0	0	56	
1	0	0	0	0	62	
2	0	0	0	0	68	
3	0	0	0	0	77	
4	0	0	0	0	94	
5	0	0	0	0	123	
6	0	0	0	0	163	
7	0	0	0	0	185	
8	0	0	0	0	55	
9	0	0	0	0	60	
10	0	0	0	0	65	
11	0	0	0	0	73	
12	0	0	0	0	89	
13	0	0	0	0	113	
14	0	0	0	0	151	
15	0	0	0	0	216	
0	0	0	0	0	55	
1	0	0	0	0	60	
2	0	0	0	0	64	
3	0	0	0	0	72	
4	0	0	0	0	88	
5	0	0	0	0	111	
6	0	0	0	0	150	
7	0	0	0	0	213	
8	0	0	0	0	55	
9	0	0	0	0	59	
10	0	0	0	0	64	
11	0	0	0	0	71	
12	0	0	0	0	87	
13	0	0	0	0	111	
14	0	0	0	0	148	
15	0	0	0	0	212	
0	0	0	0	0	54	
1	0	0	0	0	59	
2	0	0	0	0	63	
3	0	0	0	0	71	
4	0	0	0	0	87	
5	0	0	0	0	110	
6	0	0	0	0	147	
7	0	0	0	0	209	
8	0	0	0	0	54	
9	0	0	0	0	59	
10	0	0	0	0	63	
11	0	0	0	0	71	
12	0	0	0	0	86	
13	0	0	0	0	108	
14	0	0	0	0	143	
15	0	0	0	0	202	
0	0	0	0	0	53	
1	0	0	0	0	58	
2	0	0	0	0	62	
3	0	0	0	0	69	
4	0	0	0	0	83	
5	0	0	0	0	105	
6	0	0	0	0	138	
7	0	0	0	0	196	
8	0	0	0	0	73	
9	0	0	0	0	57	
10	0	0	0	0	61	
11	0	0	0	0	67	
12	0	0	0	0	82	
13	0	0	0	0	102	
14	0	0	0	0	132	
15	0	0	0	0	184	
0	0	0	0	0	109	
1	0	0	0	0	56	
2	0	0	0	0	59	
3	0	0	0	0	65	
4	0	0	0	0	78	
5	0	0	0	0	97	
6	0	0	0	0	125	
7	0	0	0	0	173	
8	0	0	0	0	142	
9	0	0	0	0	55	
10	0	0	0	0	58	
11	0	0	0	0	64	
12	0	0	0	0	76	
13	0	0	0	0	94	
14	0	0	0	0	119	
15	0	0	0	0	163	
0	0	0	0	0	177	
1	0	0	0	0	55	
2	0	0	0	0	57	
3	0	0	0	0	62	
4	0	0	0	0	73	
5	0	0	0	0	89	
6	0	0	0	0	113	
7	0	0	0	0	152	
8	0	0	0	0	208	
9	0	0	0	0	54	
10	0	0	0	0	56	
11	0	0	0	0	61	
12	0	0	0	0	71	
13	0	0	0	0	88	
14	0	0	0	0	110	
15	0	0	0	0	147	
0	0	0	0	0	210	
1	0	0	0	0	54	
2	0	0	0	0	56	
3	0	0	0	0	60	
4	0	0	0	0	70	
5	0	0	0	0	86	
6	0	0	0	0	106	
7	0	0	0	0	141	
8	0	0	0	0	201	
9	0	0	0	0	64	
10	0	0	0	0	56	
11	0	0	0	0	60	
12	0	0	0	0	69	
13	0	0	0	0	83	
14	0	0	0	0	103	
15	0	0	0	0	135	
0	0	0	0	0	190	
1	0	0	0	0	95	
2	0	0	0	0	55	
3	0	0	0	0	59	
4	0	0	0	0	67	
5	0	0	0	0	81	
6	0	0	0	0	99	
7	0	0	0	0	129	
8	0	0	0	0	180	
9	0	0	0	0	123	
10	0	0	0	0	54	
11	0	0	0	0	58	
12	0	0	0	0	66	
13	0	0	0	0	78	
14	0	0	0	0	95	
15	0	0	0	0	122	
0	0	0	0	0	167	
1	0	0	0	0	168	
2	0	0	0	0	54	
3	0	0	0	0	56	
4	0	0	0	0	64	
5	0	0	0	0	75	
6	0	0	0	0	89	
7	0	0	0	0	115	
8	0	0	0	0	157	
9	0	0	0	0	210	
10	0	0	0	0	53	
11	0	0	0	0	56	
12	0	0	0	0	62	
13	0	0	0	0	71	
14	0	0	0	0	85	
15	0	0	0	0	106	
0	0	0	0	0	141	
1	0	0	0	0	202	
2	0	0	0	0	60	
3	0	0	0	0	54	
4	0	0	0	0	61	
5	0	0	0	0	70	
6	0	0	0	0	81	
7	0	0	0	0	101	
8	0	0	0	0	132	
9	0	0	0	0	187	
10	0	0	0	0	105	
11	0	0	0	0	53	
12	0	0	0	0	59	
13	0	0	0	0	67	
14	0	0	0	0	78	
15	0	0	0	0	96	
0	0	0	0	0	124	
1	0	0	0	0	171	
2	0	0	0	0	150	
3	0	0	0	0	52	
4	0	0	0	0	58	
5	0	0	0	0	66	
6	0	0	0	0	75	
7	0	0	0	0	90	
8	0	0	0	0	119	
9	0	0	0	0	162	
10	0	0	0	0	188	
11	0	0	0	0	52	
12	0	0	0	0	57	
13	0	0	0	0	64	
14	0	0	0	0	72	
15	0	0	0	0	87	
0	0	0	0	0	111	
1	0	0	0	0	151	
2	0	0	0	0	210	
3	0	0	0	0	84	
4	0	0	0	0	112	
5	0	0	0	0	158	
6	0	0	0	0	227	
7	0	0	0	0	341	
8	0	0	0	0	448	
9	0	0	0	0	391	
10	0	0	0	0	280	
11	0	0	0	0	91	
12	0	0	0	0	113	
13	0	0	0	0	157	
14	0	0	0	0	221	
15	0	0	0	0	332	
0	0	0	0	0	466	
1	0	0	0	0	417	
2	0	0	0	0	312	
3	0	0	0	0	135	
4	0	0	0	0	109	
5	0	0	0	0	150	
6	0	0	0	0	210	
7	0	0	0	0	315	
8	0	0	0	0	469	
9	0	0	0	0	428	
10	0	0	0	0	331	
11	0	0	0	0	171	
12	0	0	0	0	104	
13	0	0	0	0	141	
14	0	0	0	0	194	
15	0	0	0	0	285	
0	0	0	0	0	420	
1	0	0	0	0	448	
2	0	0	0	0	365	
3	0	0	0	0	231	
4	0	0	0	0	97	
5	0	0	0	0	128	
6	0	0	0	0	174	
7	0	0	0	0	254	
8	0	0	0	0	377	
9	0	0	0	0	461	
10	0	0	0	0	388	
11	0	0	0	0	268	
12	0	0	0	0	92	
13	0	0	0	0	121	
14	0	0	0	0	163	
15	0	0	0	0	237	
0	0	0	0	0	353	
1	0	0	0	0	467	
2	0	0	0	0	403	
3	0	0	0	0	291	
4	0	0	0	0	93	
5	0	0	0	0	117	
6	0	0	0	0	157	
7	0	0	0	0	224	
8	0	0	0	0	330	
9	0	0	0	0	476	
10	0	0	0	0	417	
11	0	0	0	0	317	
12	0	0	0	0	140	
13	0	0	0	0	110	
14	0	0	0	0	145	
15	0	0	0	0	207	
0	0	0	0	0	304	
1	0	0	0	0	457	
2	0	0	0	0	432	
3	0	0	0	0	344	
4	0	0	0	0	185	
5	0	0	0	0	104	
6	0	0	0	0	136	
7	0	0	0	0	192	
8	0	0	0	0	279	
9	0	0	0	0	417	
10	0	0	0	0	446	
11	0	0	0	0	369	
12	0	0	0	0	230	
13	0	0	0	0	98	
14	0	0	0	0	126	
15	0	0	0	0	173	
0	0	0	0	0	251	
1	0	0	0	0	375	
2	0	0	0	0	461	
3	0	0	0	0	396	
4	0	0	0	0	280	
5	0	0	0	0	91	
6	0	0	0	0	115	
7	0	0	0	0	155	
8	0	0	0	0	221	
9	0	0	0	0	327	
10	0	0	0	0	477	
11	0	0	0	0	421	
12	0	0	0	0	325	
13	0	0	0	0	158	
14	0	0	0	0	106	
15	0	0	0	0	141	
0	0	0	0	0	201	
1	0	0	0	0	298	
2	0	0	0	0	445	
3	0	0	0	0	437	
4	0	0	0	0	355	
5	0	0	0	0	206	
6	0	0	0	0	100	
7	0	0	0	0	131	
8	0	0	0	0	182	
9	0	0	0	0	262	
10	0	0	0	0	387	
11	0	0	0	0	457	
12	0	0	0	0	391	
13	0	0	0	0	271	
14	0	0	0	0	92	
15	0	0	0	0	116	
0	0	0	0	0	159	
1	0	0	0	0	227	
2	0	0	0	0	335	
3	0	0	0	0	472	
4	0	0	0	0	418	
5	0	0	0	0	313	
6	0	0	0	0	142	
7	0	0	0	0	107	
8	0	0	0	0	144	
9	0	0	0	0	203	
10	0	0	0	0	297	
11	0	0	0	0	438	
12	0	0	0	0	443	
13	0	0	0	0	361	
14	0	0	0	0	220	
15	0	0	0	0	97	
0	0	0	0	0	130	
1	0	0	0	0	181	
2	0	0	0	0	263	
3	0	0	0	0	388	
4	0	0	0	0	459	
5	0	0	0	0	385	
6	0	0	0	0	263	
7	0	0	0	0	91	
8	0	0	0	0	120	
9	0	0	0	0	165	
10	0	0	0	0	235	
11	0	0	0	0	343	
12	0	0	0	0	474	
13	0	0	0	0	413	
14	0	0	0	0	312	
15	0	0	0	0	129	
0	0	0	0	0	110	
1	0	0	0	0	147	
2	0	0	0	0	208	
3	0	0	0	0	303	
4	0	0	0	0	457	
5	0	0	0	0	434	
6	0	0	0	0	350	
7	0	0	0	0	193	
8	0	0	0	0	102	
9	0	0	0	0	136	
10	0	0	0	0	191	
11	0	0	0	0	276	
12	0	0	0	0	418	
13	0	0	0	0	447	
14	0	0	0	0	373	
15	0	0	0	0	232	
0	0	0	0	0	97	
1	0	0	0	0	126	
2	0	0	0	0	175	
3	0	0	0	0	250	
4	0	0	0	0	378	
5	0	0	0	0	460	
6	0	0	0	0	397	
7	0	0	0	0	275	
8	0	0	0	0	91	
9	0	0	0	0	118	
10	0	0	0	0	160	
11	0	0	0	0	226	
12	0	0	0	0	342	
13	0	0	0	0	470	
14	0	0	0	0	415	
15	0	0	0	0	305	
0	0	0	0	0	123	
1	0	0	0	0	111	
2	0	0	0	0	151	
3	0	0	0	0	211	
4	0	0	0	0	317	
5	0	0	0	0	468	
6	0	0	0	0	431	
7	0	0	0	0	333	
8	0	0	0	0	169	
9	0	0	0	0	106	
10	0	0	0	0	140	
11	0	0	0	0	194	
12	0	0	0	0	288	
13	0	0	0	0	425	
14	0	0	0	0	448	
15	0	0	0	0	363	
0	0	0	0	0	227	
1	0	0	0	0	98	
2	0	0	0	0	128	
3	0	0	0	0	174	
4	0	0	0	0	254	
5	0	0	0	0	374	
6	0	0	0	0	464	
7	0	0	0	0	390	
8	0	0	0	0	275	
9	0	0	0	0	92	
10	0	0	0	0	118	
11	0	0	0	0	159	
12	0	0	0	0	232	
13	0	0	0	0	340	
14	0	0	0	0	475	
15	0	0	0	0	410	
0	0	0	0	0	311	
1	0	0	0	0	124	
2	0	0	0	0	110	
3	0	0	0	0	399	
4	0	0	0	0	391	
5	0	0	0	0	395	
6	0	0	0	0	381	
7	0	0	0	0	388	
8	0	0	0	0	396	
9	0	0	0	0	383	
10	0	0	0	0	388	
11	0	0	0	0	396	
12	0	0	0	0	382	
13	0	0	0	0	387	
14	0	0	0	0	397	
15	0	0	0	0	383	
0	0	0	0	0	385	
1	0	0	0	0	397	
2	0	0	0	0	383	
3	0	0	0	0	384	
4	0	0	0	0	396	
5	0	0	0	0	385	
6	0	0	0	0	382	
7	0	0	0	0	396	
8	0	0	0	0	386	
9	0	0	0	0	382	
10	0	0	0	0	396	
11	0	0	0	0	387	
12	0	0	0	0	381	
13	0	0	0	0	395	
14	0	0	0	0	387	
15	0	0	0	0	380	
0	0	0	0	0	394	
1	0	0	0	0	389	
2	0	0	0	0	380	
3	0	0	0	0	393	
4	0	0	0	0	390	
5	0	0	0	0	380	
6	0	0	0	0	393	
7	0	0	0	0	391	
8	0	0	0	0	379	
9	0	0	0	0	393	
10	0	0	0	0	393	
11	0	0	0	0	379	
12	0	0	0	0	391	
13	0	0	0	0	394	
14	0	0	0	0	380	
15	0	0	0	0	389	
0	0	0	0	0	395	
1	0	0	0	0	381	
2	0	0	0	0	388	
3	0	0	0	0	395	
4	0	0	0	0	382	
5	0	0	0	0	388	
6	0	0	0	0	396	
7	0	0	0	0	382	
8	0	0	0	0	387	
9	0	0	0	0	396	
10	0	0	0	0	382	
11	0	0	0	0	385	
12	0	0	0	0	396	
13	0	0	0	0	383	
14	0	0	0	0	384	
15	0	0	0	0	396	
0	0	0	0	0	385	
1	0	0	0	0	383	
2	0	0	0	0	396	
3	0	0	0	0	386	
4	0	0	0	0	381	
5	0	0	0	0	396	
6	0	0	0	0	387	
7	0	0	0	0	380	
8	0	0	0	0	395	
9	0	0	0	0	388	
10	0	0	0	0	380	
11	0	0	0	0	394	
12	0	0	0	0	388	
13	0	0	0	0	381	
14	0	0	0	0	393	
15	0	0	0	0	390	
0	0	0	0	0	380	
1	0	0	0	0	393	
2	0	0	0	0	392	
3	0	0	0	0	379	
4	0	0	0	0	391	
5	0	0	0	0	393	
6	0	0	0	0	379	
7	0	0	0	0	390	
8	0	0	0	0	393	
9	0	0	0	0	380	
10	0	0	0	0	389	
11	0	0	0	0	394	
12	0	0	0	0	380	
13	0	0	0	0	388	
14	0	0	0	0	396	
15	0	0	0	0	382	
0	0	0	0	0	387	
1	0	0	0	0	396	
2	0	0	0	0	382	
3	0	0	0	0	386	
4	0	0	0	0	396	
5	0	0	0	0	383	
6	0	0	0	0	384	
7	0	0	0	0	396	
8	0	0	0	0	384	
9	0	0	0	0	383	
10	0	0	0	0	397	
11	0	0	0	0	385	
12	0	0	0	0	382	
13	0	0	0	0	397	
14	0	0	0	0	387	
15	0	0	0	0	380	
0	0	0	0	0	396	
1	0	0	0	0	388	
2	0	0	0	0	381	
3	0	0	0	0	394	
4	0	0	0	0	388	
5	0	0	0	0	381	
6	0	0	0	0	393	
7	0	0	0	0	389	
8	0	0	0	0	380	
9	0	0	0	0	394	
10	0	0	0	0	391	
11	0	0	0	0	379	
12	0	0	0	0	392	
13	0	0	0	0	393	
14	0	0	0	0	379	
15	0	0	0	0	391	
0	0	0	0	0	394	
1	0	0	0	0	380	
2	0	0	0	0	390	
3	0	0	0	0	395	
4	0	0	0	0	381	
5	0	0	0	0	389	
6	0	0	0	0	396	
7	0	0	0	0	382	
8	0	0	0	0	388	
9	0	0	0	0	397	
10	0	0	0	0	383	
11	0	0	0	0	387	
12	0	0	0	0	397	
13	0	0	0	0	383	
14	0	0	0	0	385	
15	0	0	0	0	396	
0	0	0	0	0	384	
1	0	0	0	0	384	
2	0	0	0	0	397	
3	0	0	0	0	385	
4	0	0	0	0	382	
5	0	0	0	0	398	
6	0	0	0	0	387	
7	0	0	0	0	381	
8	0	0	0	0	396	
9	0	0	0	0	388	
10	0	0	0	0	381	
11	0	0	0	0	394	
12	0	0	0	0	388	
13	0	0	0	0	381	
14	0	0	0	0	393	
15	0	0	0	0	389	
0	0	0	0	0	380	
1	0	0	0	0	393	
2	0	0	0	0	391	
3	0	0	0	0	379	
4	0	0	0	0	392	
5	0	0	0	0	393	
6	0	0	0	0	379	
7	0	0	0	0	390	
8	0	0	0	0	393	
9	0	0	0	0	380	
10	0	0	0	0	389	
11	0	0	0	0	393	
12	0	0	0	0	380	
13	0	0	0	0	388	
14	0	0	0	0	395	
15	0	0	0	0	381	
0	0	0	0	0	387	
1	0	0	0	0	396	
2	0	0	0	0	382	
3	0	0	0	0	386	
4	0	0	0	0	396	
5	0	0	0	0	382	
6	0	0	0	0	384	
7	0	0	0	0	396	
8	0	0	0	0	383	
9	0	0	0	0	383	
10	0	0	0	0	395	
11	0	0	0	0	384	
12	0	0	0	0	381	
13	0	0	0	0	396	
14	0	0	0	0	386	
15	0	0	0	0	380	
0	0	0	0	0	394	
1	0	0	0	0	387	
2	0	0	0	0	380	
3	0	0	0	0	393	
4	0	0	0	0	387	
5	0	0	0	0	380	
6	0	0	0	0	392	
7	0	0	0	0	388	
8	0	0	0	0	379	
9	0	0	0	0	392	
10	0	0	0	0	390	
11	0	0	0	0	377	
12	0	0	0	0	390	
13	0	0	0	0	392	
14	0	0	0	0	377	
15	0	0	0	0	388	
0	0	0	0	0	392	
1	0	0	0	0	379	
2	0	0	0	0	387	
3	0	0	0	0	393	
4	0	0	0	0	379	
5	0	0	0	0	386	
6	0	0	0	0	394	
7	0	0	0	0	380	
8	0	0	0	0	385	
9	0	0	0	0	395	
10	0	0	0	0	380	
11	0	0	0	0	384	
12	0	0	0	0	395	
13	0	0	0	0	381	
14	0	0	0	0	382	
15	0	0	0	0	394	
0	0	0	0	0	383	
1	0	0	0	0	381	
2	0	0	0	0	395	
3	0	0	0	0	384	
4	0	0	0	0	379	
5	0	0	0	0	394	
6	0	0	0	0	385	
7	0	0	0	0	379	
8	0	0	0	0	393	
9	0	0	0	0	386	
10	0	0	0	0	379	
11	0	0	0	0	391	
12	0	0	0	0	387	
13	0	0	0	0	379	
14	0	0	0	0	391	
15	0	0	0	0	388	
0	0	0	0	0	377	
1	0	0	0	0	391	
2	0	0	0	0	391	
3	0	0	0	0	376	
4	0	0	0	0	389	
5	0	0	0	0	391	
6	0	0	0	0	377	
7	0	0	0	0	388	
8	0	0	0	0	393	
9	0	0	0	0	379	
10	0	0	0	0	386	
11	0	0	0	0	393	
12	0	0	0	0	380	
13	0	0	0	0	386	
14	0	0	0	0	394	
15	0	0	0	0	380	
0	0	0	0	0	384	
1	0	0	0	0	395	
2	0	0	0	0	381	
3	0	0	0	0	382	
4	0	0	0	0	394	
5	0	0	0	0	383	
6	0	0	0	0	381	
7	0	0	0	0	394	
8	0	0	0	0	384	
9	0	0	0	0	380	
10	0	0	0	0	395	
11	0	0	0	0	385	
12	0	0	0	0	379	
13	0	0	0	0	393	
14	0	0	0	0	385	
15	0	0	0	0	379	
0	0	0	0	0	392	
1	0	0	0	0	387	
2	0	0	0	0	379	
3	0	0	0	0	391	
4	0	0	0	0	388	
5	0	0	0	0	378	
6	0	0	0	0	391	
7	0	0	0	0	390	
8	0	0	0	0	377	
9	0	0	0	0	389	
10	0	0	0	0	391	
11	0	0	0	0	376	
12	0	0	0	0	387	
13	0	0	0	0	392	
14	0	0	0	0	378	
15	0	0	0	0	386	
0	0	0	0	0	393	
1	0	0	0	0	380	
2	0	0	0	0	385	
3	0	0	0	0	393	
4	0	0	0	0	380	
5	0	0	0	0	385	
6	0	0	0	0	394	
7	0	0	0	0	380	
8	0	0	0	0	382	
9	0	0	0	0	394	
10	0	0	0	0	382	
11	0	0	0	0	380	
12	0	0	0	0	394	
13	0	0	0	0	384	
14	0	0	0	0	380	
15	0	0	0	0	393	
0	0	0	0	0	385	
1	0	0	0	0	379	
2	0	0	0	0	393	
3	0	0	0	0	385	
4	0	0	0	0	379	
5	0	0	0	0	391	
6	0	0	0	0	386	
7	0	0	0	0	378	
8	0	0	0	0	391	
9	0	0	0	0	389	
10	0	0	0	0	377	
11	0	0	0	0	390	
12	0	0	0	0	390	
13	0	0	0	0	377	
14	0	0	0	0	389	
15	0	0	0	0	391	
0	0	0	0	0	377	
1	0	0	0	0	388	
2	0	0	0	0	392	
3	0	0	0	0	378	
4	0	0	0	0	386	
5	0	0	0	0	393	
6	0	0	0	0	380	
7	0	0	0	0	385	
8	0	0	0	0	393	
9	0	0	0	0	381	
10	0	0	0	0	384	
11	0	0	0	0	394	
12	0	0	0	0	381	
13	0	0	0	0	383	
14	0	0	0	0	394	
15	0	0	0	0	382	
0	0	0	0	0	381	
1	0	0	0	0	395	
2	0	0	0	0	384	
3	0	0	0	0	379	
4	0	0	0	0	394	
5	0	0	0	0	385	
6	0	0	0	0	379	
7	0	0	0	0	392	
8	0	0	0	0	385	
9	0	0	0	0	379	
10	0	0	0	0	391	
11	0	0	0	0	386	
12	0	0	0	0	378	
13	0	0	0	0	391	
14	0	0	0	0	388	
15	0	0	0	0	377	
0	0	0	0	0	391	
1	0	0	0	0	391	
2	0	0	0	0	377	
3	0	0	0	0	389	
4	0	0	0	0	391	
5	0	0	0	0	377	
6	0	0	0	0	387	
7	0	0	0	0	392	
8	0	0	0	0	379	
9	0	0	0	0	386	
10	0	0	0	0	393	
11	0	0	0	0	379	
12	0	0	0	0	385	
13	0	0	0	0	394	
14	0	0	0	0	380	
15	0	0	0	0	384	
0	0	0	0	0	394	
1	0	0	0	0	381	
2	0	0	0	0	382	
3	0	0	0	0	393	
4	0	0	0	0	382	
5	0	0	0	0	380	
6	0	0	0	0	395	
7	0	0	0	0	384	
8	0	0	0	0	379	
9	0	0	0	0	393	
10	0	0	0	0	385	
11	0	0	0	0	378	
12	0	0	0	0	392	
13	0	0	0	0	385	
14	0	0	0	0	378	
15	0	0	0	0	391	
0	0	0	0	0	386	
1	0	0	0	0	378	
2	0	0	0	0	391	
3	0	0	0	0	388	
4	0	0	0	0	376	
5	0	0	0	0	390	
6	0	0	0	0	390	
7	0	0	0	0	376	
8	0	0	0	0	388	
9	0	0	0	0	391	
10	0	0	0	0	377	
11	0	0	0	0	386	
12	0	0	0	0	392	
13	0	0	0	0	379	
14	0	0	0	0	385	
15	0	0	0	0	393	
0	0	0	0	0	380	
1	0	0	0	0	385	
2	0	0	0	0	393	
3	0	0	0	0	380	
4	0	0	0	0	383	
5	0	0	0	0	394	
6	0	0	0	0	380	
7	0	0	0	0	380	
8	0	0	0	0	393	
9	0	0	0	0	382	
10	0	0	0	0	379	
11	0	0	0	0	393	
12	0	0	0	0	384	
13	0	0	0	0	379	
14	0	0	0	0	392	
15	0	0	0	0	385	
0	0	0	0	0	378	
1	0	0	0	0	392	
2	0	0	0	0	385	
3	0	0	0	0	377	
4	0	0	0	0	391	
5	0	0	0	0	388	
6	0	0	0	0	377	
7	0	0	0	0	391	
8	0	0	0	0	390	
9	0	0	0	0	377	
10	0	0	0	0	389	
11	0	0	0	0	390	
12	0	0	0	0	376	
13	0	0	0	0	388	
14	0	0	0	0	391	
15	0	0	0	0	378	
0	0	0	0	0	385	
1	0	0	0	0	393	
2	0	0	0	0	379	
3	0	0	0	0	384	
4	0	0	0	0	393	
5	0	0	0	0	380	
6	0	0	0	0	384	
7	0	0	0	0	393	
8	0	0	0	0	380	
9	0	0	0	0	382	
10	0	0	0	0	394	
11	0	0	0	0	381	
12	0	0	0	0	380	
13	0	0	0	0	395	
14	0	0	0	0	384	
15	0	0	0	0	379	
0	0	0	0	0	393	
1	0	0	0	0	385	
2	0	0	0	0	379	
3	0	0	0	0	392	
4	0	0	0	0	385	
5	0	0	0	0	378	
6	0	0	0	0	46	
7	0	0	0	0	45	
8	0	0	0	0	46	
9	0	0	0	0	47	
10	0	0	0	0	46	
11	0	0	0	0	45	
12	0	0	0	0	46	
13	0	0	0	0	48	
14	0	0	0	0	46	
15	0	0	0	0	45	
0	0	0	0	0	46	
1	0	0	0	0	47	
2	0	0	0	0	46	
3	0	0	0	0	45	
4	0	0	0	0	46	
5	0	0	0	0	47	
6	0	0	0	0	46	
7	0	0	0	0	45	
8	0	0	0	0	46	
9	0	0	0	0	48	
10	0	0	0	0	46	
11	0	0	0	0	45	
12	0	0	0	0	46	
13	0	0	0	0	47	
14	0	0	0	0	46	
15	0	0	0	0	45	
0	0	0	0	0	46	
1	0	0	0	0	48	
2	0	0	0	0	46	
3	0	0	0	0	45	
4	0	0	0	0	46	
5	0	0	0	0	48	
6	0	0	0	0	46	
7	0	0	0	0	45	
8	0	0	0	0	46	
9	0	0	0	0	48	
10	0	0	0	0	46	
11	0	0	0	0	45	
12	0	0	0	0	46	
13	0	0	0	0	48	
14	0	0	0	0	46	
15	0	0	0	0	45	
0	0	0	0	0	46	
1	0	0	0	0	48	
2	0	0	0	0	46	
3	0	0	0	0	45	
4	0	0	0	0	46	
5	0	0	0	0	48	
6	0	0	0	0	46	
7	0	0	0	0	45	
8	0	0	0	0	46	
9	0	0	0	0	48	
10	0	0	0	0	46	
11	0	0	0	0	45	
12	0	0	0	0	46	
13	0	0	0	0	48	
14	0	0	0	0	46	
15	0	0	0	0	45	
0	0	0	0	0	46	
1	0	0	0	0	48	
2	0	0	0	0	46	
3	0	0	0	0	45	
4	0	0	0	0	46	
5	0	0	0	0	48	
6	0	0	0	0	46	
7	0	0	0	0	45	
8	0	0	0	0	46	
9	0	0	0	0	48	
10	0	0	0	0	46	
11	0	0	0	0	45	
12	0	0	0	0	46	
13	0	0	0	0	48	
14	0	0	0	0	46	
15	0	0	0	0	45	
0	0	0	0	0	47	
1	0	0	0	0	48	
2	0	0	0	0	46	
3	0	0	0	0	45	
4	0	0	0	0	46	
5	0	0	0	0	48	
6	0	0	0	0	46	
7	0	0	0	0	45	
8	0	0	0	0	46	
9	0	0	0	0	48	
10	0	0	0	0	46	
11	0	0	0	0	45	
12	0	0	0	0	46	
13	0	0	0	0	47	
14	0	0	0	0	46	
15	0	0	0	0	45	
0	0	0	0	0	46	
1	0	0	0	0	48	
2	0	0	0	0	46	
3	0	0	0	0	45	
4	0	0	0	0	46	
5	0	0	0	0	48	
6	0	0	0	0	47	
7	0	0	0	0	45	
8	0	0	0	0	47	
9	0	0	0	0	48	
10	0	0	0	0	46	
11	0	0	0	0	45	
12	0	0	0	0	47	
13	0	0	0	0	48	
14	0	0	0	0	46	
15	0	0	0	0	45	
0	0	0	0	0	46	
1	0	0	0	0	48	
2	0	0	0	0	46	
3	0	0	0	0	45	
4	0	0	0	0	46	
5	0	0	0	0	48	
6	0	0	0	0	46	
7	0	0	0	0	45	
8	0	0	0	0	47	
9	0	0	0	0	48	
10	0	0	0	0	46	
11	0	0	0	0	45	
12	0	0	0	0	46	
13	0	0	0	0	48	
14	0	0	0	0	47	
15	0	0	0	0	45	
0	0	0	0	0	46	
1	0	0	0	0	48	
2	0	0	0	0	46	
3	0	0	0	0	45	
4	0	0	0	0	46	
5	0	0	0	0	48	
6	0	0	0	0	46	
7	0	0	0	0	45	
8	0	0	0	0	46	
9	0	0	0	0	48	
10	0	0	0	0	46	
11	0	0	0	0	45	
12	0	0	0	0	46	
13	0	0	0	0	48	
14	0	0	0	0	47	
15	0	0	0	0	45	
0	0	0	0	0	47	
1	0	0	0	0	48	
2	0	0	0	0	47	
3	0	0	0	0	46	
4	0	0	0	0	47	
5	0	0	0	0	48	
6	0	0	0	0	47	
7	0	0	0	0	45	
8	0	0	0	0	47	
9	0	0	0	0	48	
10	0	0	0	0	47	
11	0	0	0	0	45	
12	0	0	0	0	47	
13	0	0	0	0	48	
14	0	0	0	0	46	
15	0	0	0	0	45	
0	0	0	0	0	46	
1	0	0	0	0	48	
2	0	0	0	0	47	
3	0	0	0	0	45	
4	0	0	0	0	47	
5	0	0	0	0	48	
6	0	0	0	0	47	
7	0	0	0	0	45	
8	0	0	0	0	46	
9	0	0	0	0	48	
10	0	0	0	0	47	
11	0	0	0	0	45	
12	0	0	0	0	47	
13	0	0	0	0	48	
14	0	0	0	0	47	
15	0	0	0	0	45	
0	0	0	0	0	46	
1	0	0	0	0	48	
2	0	0	0	0	46	
3	0	0	0	0	45	
4	0	0	0	0	47	
5	0	0	0	0	48	
6	0	0	0	0	46	
7	0	0	0	0	45	
8	0	0	0	0	46	
9	0	0	0	0	48	
10	0	0	0	0	47	
11	0	0	0	0	45	
12	0	0	0	0	47	
13	0	0	0	0	48	
14	0	0	0	0	47	
15	0	0	0	0	46	
0	0	0	0	0	47	
1	0	0	0	0	48	
2	0	0	0	0	47	
3	0	0	0	0	45	
4	0	0	0	0	47	
5	0	0	0	0	48	
6	0	0	0	0	47	
7	0	0	0	0	45	
8	0	0	0	0	47	
9	0	0	0	0	48	
10	0	0	0	0	46	
11	0	0	0	0	45	
12	0	0	0	0	46	
13	0	0	0	0	48	
14	0	0	0	0	47	
15	0	0	0	0	46	
0	0	0	0	0	47	
1	0	0	0	0	48	
2	0	0	0	0	47	
3	0	0	0	0	46	
4	0	0	0	0	47	
5	0	0	0	0	48	
6	0	0	0	0	47	
7	0	0	0	0	45	
8	0	0	0	0	47	
9	0	0	0	0	48	
10	0	0	0	0	47	
11	0	0	0	0	45	
12	0	0	0	0	47	
13	0	0	0	0	48	
14	0	0	0	0	47	
15	0	0	0	0	45	
0	0	0	0	0	46	
1	0	0	0	0	48	
2	0	0	0	0	46	
3	0	0	0	0	45	
4	0	0	0	0	46	
5	0	0	0	0	48	
6	0	0	0	0	47	
7	0	0	0	0	45	
8	0	0	0	0	46	
9	0	0	0	0	48	
10	0	0	0	0	47	
11	0	0	0	0	45	
12	0	0	0	0	47	
13	0	0	0	0	48	
14	0	0	0	0	47	
15	0	0	0	0	45	
0	0	0	0	0	47	
1	0	0	0	0	48	
2	0	0	0	0	47	
3	0	0	0	0	45	
4	0	0	0	0	46	
5	0	0	0	0	48	
6	0	0	0	0	46	
7	0	0	0	0	45	
8	0	0	0	0	46	
9	0	0	0	0	48	
10	0	0	0	0	47	
11	0	0	0	0	46	
12	0	0	0	0	47	
13	0	0	0	0	48	
14	0	0	0	0	47	
15	0	0	0	0	46	
0	0	0	0	0	47	
1	0	0	0	0	48	
2	0	0	0	0	46	
3	0	0	0	0	45	
4	0	0	0	0	47	
5	0	0	0	0	48	
6	0	0	0	0	46	
7	0	0	0	0	45	
8	0	0	0	0	46	
9	0	0	0	0	48	
10	0	0	0	0	47	
11	0	0	0	0	45	
12	0	0	0	0	46	
13	0	0	0	0	48	
14	0	0	0	0	47	
15	0	0	0	0	45	
0	0	0	0	0	47	
1	0	0	0	0	48	
2	0	0	0	0	47	
3	0	0	0	0	46	
4	0	0	0	0	47	
5	0	0	0	0	48	
6	0	0	0	0	47	
7	0	0	0	0	45	
8	0	0	0	0	47	
9	0	0	0	0	48	
10	0	0	0	0	47	
11	0	0	0	0	45	
12	0	0	0	0	47	
13	0	0	0	0	48	
14	0	0	0	0	46	
15	0	0	0	0	45	
0	0	0	0	0	47	
1	0	0	0	0	48	
2	0	0	0	0	46	
3	0	0	0	0	45	
4	0	0	0	0	46	
5	0	0	0	0	48	
6	0	0	0	0	47	
7	0	0	0	0	45	
8	0	0	0	0	47	
9	0	0	0	0	48	
10	0	0	0	0	47	
11	0	0	0	0	45	
12	0	0	0	0	47	
13	0	0	0	0	48	
14	0	0	0	0	47	
15	0	0	0	0	45	
0	0	0	0	0	47	
1	0	0	0	0	48	
2	0	0	0	0	46	
3	0	0	0	0	45	
4	0	0	0	0	47	
5	0	0	0	0	48	
6	0	0	0	0	47	
7	0	0	0	0	45	
8	0	0	0	0	46	
9	0	0	0	0	48	
10	0	0	0	0	47	
11	0	0	0	0	46	
12	0	0	0	0	47	
13	0	0	0	0	48	
14	0	0	0	0	47	
15	0	0	0	0	46	
0	0	0	0	0	47	
1	0	0	0	0	48	
2	0	0	0	0	47	
3	0	0	0	0	46	
4	0	0	0	0	47	
5	0	0	0	0	48	
6	0	0	0	0	47	
7	0	0	0	0	46	
8	0	0	0	0	47	
9	0	0	0	0	48	
10	0	0	0	0	47	
11	0	0	0	0	46	
12	0	0	0	0	47	
13	0	0	0	0	48	
14	0	0	0	0	47	
15	0	0	0	0	46	
0	0	0	0	0	47	
1	0	0	0	0	48	
2	0	0	0	0	47	
3	0	0	0	0	45	
4	0	0	0	0	47	
5	0	0	0	0	48	
6	0	0	0	0	47	
7	0	0	0	0	45	
8	0	0	0	0	47	
9	0	0	0	0	48	
10	0	0	0	0	46	
11	0	0	0	0	45	
12	0	0	0	0	46	
13	0	0	0	0	47	
14	0	0	0	0	46	
15	0	0	0	0	45	
0	0	0	0	0	46	
1	0	0	0	0	47	
2	0	0	0	0	46	
3	0	0	0	0	44	
4	0	0	0	0	46	
5	0	0	0	0	47	
6	0	0	0	0	46	
7	0	0	0	0	44	
8	0	0	0	0	46	
9	0	0	0	0	47	
10	0	0	0	0	46	
11	0	0	0	0	44	
12	0	0	0	0	45	
13	0	0	0	0	47	
14	0	0	0	0	46	
15	0	0	0	0	44	
0	0	0	0	0	45	
1	0	0	0	0	47	
2	0	0	0	0	45	
3	0	0	0	0	44	
4	0	0	0	0	45	
5	0	0	0	0	47	
6	0	0	0	0	45	
7	0	0	0	0	44	
8	0	0	0	0	45	
9	0	0	0	0	47	
10	0	0	0	0	45	
11	0	0	0	0	44	
12	0	0	0	0	45	
13	0	0	0	0	47	
14	0	0	0	0	45	
15	0	0	0	0	44	
0	0	0	0	0	45	
1	0	0	0	0	47	
2	0	0	0	0	46	
3	0	0	0	0	44	
4	0	0	0	0	45	
5	0	0	0	0	47	
6	0	0	0	0	45	
7	0	0	0	0	44	
8	0	0	0	0	45	
9	0	0	0	0	47	
10	0	0	0	0	45	
11	0	0	0	0	44	
12	0	0	0	0	45	
13	0	0	0	0	47	
14	0	0	0	0	45	
15	0	0	0	0	44	
0	0	0	0	0	45	
1	0	0	0	0	47	
2	0	0	0	0	45	
3	0	0	0	0	44	
4	0	0	0	0	46	
5	0	0	0	0	47	
6	0	0	0	0	45	
7	0	0	0	0	44	
8	0	0	0	0	46	
9	0	0	0	0	47	
10	0	0	0	0	46	
11	0	0	0	0	44	
12	0	0	0	0	45	
13	0	0	0	0	47	
14	0	0	0	0	45	
15	0	0	0	0	44	
0	0	0	0	0	46	
1	0	0	0	0	47	
2	0	0	0	0	45	
3	0	0	0	0	44	
4	0	0	0	0	45	
5	0	0	0	0	47	
6	0	0	0	0	45	
7	0	0	0	0	44	
8	0	0	0	0	45	
9	0	0	0	0	47	
10	0	0	0	0	45	
11	0	0	0	0	44	
12	0	0	0	0	46	
13	0	0	0	0	47	
14	0	0	0	0	45	
15	0	0	0	0	44	
0	0	0	0	0	46	
1	0	0	0	0	47	
2	0	0	0	0	46	
3	0	0	0	0	44	
4	0	0	0	0	45	
5	0	0	0	0	47	
6	0	0	0	0	45	
7	0	0	0	0	44	
8	0	0	0	0	45	
9	0	0	0	0	47	
10	0	0	0	0	45	
11	0	0	0	0	44	
12	0	0	0	0	45	
13	0	0	0	0	47	
14	0	0	0	0	46	
15	0	0	0	0	44	
0	0	0	0	0	45	
1	0	0	0	0	47	
2	0	0	0	0	45	
3	0	0	0	0	44	
4	0	0	0	0	46	
5	0	0	0	0	47	
6	0	0	0	0	46	
7	0	0	0	0	44	
8	0	0	0	0	46	
9	0	0	0	0	47	
10	0	0	0	0	45	
11	0	0	0	0	44	
12	0	0	0	0	45	
13	0	0	0	0	47	
14	0	0	0	0	45	
15	0	0	0	0	44	
0	0	0	0	0	45	
1	0	0	0	0	47	
2	0	0	0	0	45	
3	0	0	0	0	44	
4	0	0	0	0	45	
5	0	0	0	0	47	
6	0	0	0	0	46	
7	0	0	0	0	44	
8	0	0	0	0	46	
9	0	0	0	0	47	
10	0	0	0	0	46	
11	0	0	0	0	44	
12	0	0	0	0	46	
13	0	0	0	0	47	
14	0	0	0	0	45	
15	0	0	0	0	44	
0	0	0	0	0	45	
1	0	0	0	0	47	
2	0	0	0	0	45	
3	0	0	0	0	44	
4	0	0	0	0	45	
5	0	0	0	0	47	
6	0	0	0	0	45	
7	0	0	0	0	44	
8	0	0	0	0	45	
9	0	0	0	0	47	
10	0	0	0	0	45	
11	0	0	0	0	44	
12	0	0	0	0	45	
13	0	0	0	0	47	
14	0	0	0	0	46	
15	0	0	0	0	44	
0	0	0	0	0	46	
1	0	0	0	0	47	
2	0	0	0	0	45	
3	0	0	0	0	44	
4	0	0	0	0	46	
5	0	0	0	0	47	
6	0	0	0	0	45	
7	0	0	0	0	44	
8	0	0	0	0	45	
9	0	0	0	0	47	
10	0	0	0	0	45	
11	0	0	0	0	44	
12	0	0	0	0	45	
13	0	0	0	0	47	
14	0	0	0	0	45	
15	0	0	0	0	44	
0	0	0	0	0	45	
1	0	0	0	0	47	
2	0	0	0	0	46	
3	0	0	0	0	44	
4	0	0	0	0	45	
5	0	0	0	0	47	
6	0	0	0	0	46	
7	0	0	0	0	44	
8	0	0	0	0	45	
9	0	0	0	0	47	
10	0	0	0	0	45	
11	0	0	0	0	44	
12	0	0	0	0	46	
13	0	0	0	0	47	
14	0	0	0	0	45	
15	0	0	0	0	44	
0	0	0	0	0	45	
1	0	0	0	0	47	
2	0	0	0	0	45	
3	0	0	0	0	44	
4	0	0	0	0	45	
5	0	0	0	0	47	
6	0	0	0	0	45	
7	0	0	0	0	44	
8	0	0	0	0	46	
9	0	0	0	0	47	
10	0	0	0	0	45	
11	0	0	0	0	44	
12	0	0	0	0	46	
13	0	0	0	0	47	
14	0	0	0	0	45	
15	0	0	0	0	44	
0	0	0	0	0	46	
1	0	0	0	0	47	
2	0	0	0	0	45	
3	0	0	0	0	44	
4	0	0	0	0	45	
5	0	0	0	0	47	
6	0	0	0	0	45	
7	0	0	0	0	44	
8	0	0	0	0	45	
9	0	0	0	0	47	
10	0	0	0	0	45	
11	0	0	0	0	44	
12	0	0	0	0	45	
13	0	0	0	0	47	
14	0	0	0	0	105	
15	0	0	0	0	123	
0	0	0	0	0	176	
1	0	0	0	0	54	
2	0	0	0	0	56	
3	0	0	0	0	61	
4	0	0	0	0	72	
5	0	0	0	0	88	
6	0	0	0	0	112	
7	0	0	0	0	155	
8	0	0	0	0	192	
9	0	0	0	0	55	
10	0	0	0	0	57	
11	0	0	0	0	63	
12	0	0	0	0	73	
13	0	0	0	0	90	
14	0	0	0	0	113	
15	0	0	0	0	154	
0	0	0	0	0	204	
1	0	0	0	0	54	
2	0	0	0	0	57	
3	0	0	0	0	62	
4	0	0	0	0	71	
5	0	0	0	0	87	
6	0	0	0	0	108	
7	0	0	0	0	144	
8	0	0	0	0	205	
9	0	0	0	0	55	
10	0	0	0	0	56	
11	0	0	0	0	60	
12	0	0	0	0	69	
13	0	0	0	0	83	
14	0	0	0	0	103	
15	0	0	0	0	134	
0	0	0	0	0	188	
1	0	0	0	0	105	
2	0	0	0	0	54	
3	0	0	0	0	58	
4	0	0	0	0	67	
5	0	0	0	0	79	
6	0	0	0	0	96	
7	0	0	0	0	124	
8	0	0	0	0	173	
9	0	0	0	0	149	
10	0	0	0	0	54	
11	0	0	0	0	57	
12	0	0	0	0	65	
13	0	0	0	0	77	
14	0	0	0	0	92	
15	0	0	0	0	119	
0	0	0	0	0	164	
1	0	0	0	0	181	
2	0	0	0	0	53	
3	0	0	0	0	56	
4	0	0	0	0	63	
5	0	0	0	0	75	
6	0	0	0	0	88	
7	0	0	0	0	114	
8	0	0	0	0	157	
9	0	0	0	0	208	
10	0	0	0	0	53	
11	0	0	0	0	55	
12	0	0	0	0	62	
13	0	0	0	0	73	
14	0	0	0	0	86	
15	0	0	0	0	108	
0	0	0	0	0	145	
1	0	0	0	0	211	
2	0	0	0	0	52	
3	0	0	0	0	55	
4	0	0	0	0	62	
5	0	0	0	0	72	
6	0	0	0	0	84	
7	0	0	0	0	105	
8	0	0	0	0	142	
9	0	0	0	0	202	
10	0	0	0	0	59	
11	0	0	0	0	55	
12	0	0	0	0	60	
13	0	0	0	0	70	
14	0	0	0	0	81	
15	0	0	0	0	100	
0	0	0	0	0	131	
1	0	0	0	0	184	
2	0	0	0	0	115	
3	0	0	0	0	53	
4	0	0	0	0	59	
5	0	0	0	0	68	
6	0	0	0	0	77	
7	0	0	0	0	94	
8	0	0	0	0	123	
9	0	0	0	0	171	
10	0	0	0	0	156	
11	0	0	0	0	53	
12	0	0	0	0	58	
13	0	0	0	0	66	
14	0	0	0	0	75	
15	0	0	0	0	90	
0	0	0	0	0	116	
1	0	0	0	0	158	
2	0	0	0	0	199	
3	0	0	0	0	52	
4	0	0	0	0	57	
5	0	0	0	0	64	
6	0	0	0	0	71	
7	0	0	0	0	85	
8	0	0	0	0	108	
9	0	0	0	0	146	
10	0	0	0	0	205	
11	0	0	0	0	53	
12	0	0	0	0	56	
13	0	0	0	0	62	
14	0	0	0	0	69	
15	0	0	0	0	81	
0	0	0	0	0	102	
1	0	0	0	0	137	
2	0	0	0	0	188	
3	0	0	0	0	97	
4	0	0	0	0	55	
5	0	0	0	0	61	
6	0	0	0	0	67	
7	0	0	0	0	78	
8	0	0	0	0	96	
9	0	0	0	0	127	
10	0	0	0	0	173	
11	0	0	0	0	151	
12	0	0	0	0	54	
13	0	0	0	0	60	
14	0	0	0	0	64	
15	0	0	0	0	73	
0	0	0	0	0	90	
1	0	0	0	0	114	
2	0	0	0	0	153	
3	0	0	0	0	211	
4	0	0	0	0	53	
5	0	0	0	0	58	
6	0	0	0	0	62	
7	0	0	0	0	70	
8	0	0	0	0	84	
9	0	0	0	0	105	
10	0	0	0	0	137	
11	0	0	0	0	193	
12	0	0	0	0	87	
13	0	0	0	0	56	
14	0	0	0	0	60	
15	0	0	0	0	67	
0	0	0	0	0	79	
1	0	0	0	0	99	
2	0	0	0	0	128	
3	0	0	0	0	180	
4	0	0	0	0	126	
5	0	0	0	0	56	
6	0	0	0	0	59	
7	0	0	0	0	65	
8	0	0	0	0	76	
9	0	0	0	0	95	
10	0	0	0	0	120	
11	0	0	0	0	165	
12	0	0	0	0	173	
13	0	0	0	0	55	
14	0	0	0	0	58	
15	0	0	0	0	63	
0	0	0	0	0	73	
1	0	0	0	0	89	
2	0	0	0	0	112	
3	0	0	0	0	151	
4	0	0	0	0	216	
5	0	0	0	0	54	
6	0	0	0	0	56	
7	0	0	0	0	61	
8	0	0	0	0	71	
9	0	0	0	0	85	
10	0	0	0	0	105	
11	0	0	0	0	140	
12	0	0	0	0	199	
13	0	0	0	0	72	
14	0	0	0	0	56	
15	0	0	0	0	60	
0	0	0	0	0	69	
1	0	0	0	0	82	
2	0	0	0	0	100	
3	0	0	0	0	321	
4	0	0	0	0	275	
5	0	0	0	0	145	
6	0	0	0	0	102	
7	0	0	0	0	136	
8	0	0	0	0	193	
9	0	0	0	0	283	
10	0	0	0	0	432	
11	0	0	0	0	419	
12	0	0	0	0	344	
13	0	0	0	0	193	
14	0	0	0	0	102	
15	0	0	0	0	132	
0	0	0	0	0	188	
1	0	0	0	0	273	
2	0	0	0	0	416	
3	0	0	0	0	437	
4	0	0	0	0	367	
5	0	0	0	0	229	
6	0	0	0	0	97	
7	0	0	0	0	124	
8	0	0	0	0	174	
9	0	0	0	0	249	
10	0	0	0	0	373	
11	0	0	0	0	455	
12	0	0	0	0	389	
13	0	0	0	0	268	
14	0	0	0	0	92	
15	0	0	0	0	119	
0	0	0	0	0	163	
1	0	0	0	0	234	
2	0	0	0	0	348	
3	0	0	0	0	465	
4	0	0	0	0	407	
5	0	0	0	0	295	
6	0	0	0	0	105	
7	0	0	0	0	113	
8	0	0	0	0	155	
9	0	0	0	0	221	
10	0	0	0	0	328	
11	0	0	0	0	472	
12	0	0	0	0	417	
13	0	0	0	0	316	
14	0	0	0	0	138	
15	0	0	0	0	109	
0	0	0	0	0	148	
1	0	0	0	0	209	
2	0	0	0	0	308	
3	0	0	0	0	457	
4	0	0	0	0	431	
5	0	0	0	0	341	
6	0	0	0	0	180	
7	0	0	0	0	103	
8	0	0	0	0	137	
9	0	0	0	0	192	
10	0	0	0	0	280	
11	0	0	0	0	417	
12	0	0	0	0	446	
13	0	0	0	0	368	
14	0	0	0	0	230	
15	0	0	0	0	97	
0	0	0	0	0	128	
1	0	0	0	0	178	
2	0	0	0	0	259	
3	0	0	0	0	387	
4	0	0	0	0	455	
5	0	0	0	0	384	
6	0	0	0	0	259	
7	0	0	0	0	93	
8	0	0	0	0	121	
9	0	0	0	0	168	
10	0	0	0	0	240	
11	0	0	0	0	362	
12	0	0	0	0	463	
13	0	0	0	0	397	
14	0	0	0	0	280	
15	0	0	0	0	91	
0	0	0	0	0	119	
1	0	0	0	0	165	
2	0	0	0	0	236	
3	0	0	0	0	356	
4	0	0	0	0	463	
5	0	0	0	0	401	
6	0	0	0	0	284	
7	0	0	0	0	90	
8	0	0	0	0	117	
9	0	0	0	0	161	
10	0	0	0	0	229	
11	0	0	0	0	342	
12	0	0	0	0	468	
13	0	0	0	0	412	
14	0	0	0	0	303	
15	0	0	0	0	116	
0	0	0	0	0	113	
1	0	0	0	0	154	
2	0	0	0	0	218	
3	0	0	0	0	326	
4	0	0	0	0	473	
5	0	0	0	0	420	
6	0	0	0	0	318	
7	0	0	0	0	141	
8	0	0	0	0	109	
9	0	0	0	0	148	
10	0	0	0	0	208	
11	0	0	0	0	308	
12	0	0	0	0	462	
13	0	0	0	0	428	
14	0	0	0	0	332	
15	0	0	0	0	165	
0	0	0	0	0	107	
1	0	0	0	0	144	
2	0	0	0	0	200	
3	0	0	0	0	295	
4	0	0	0	0	438	
5	0	0	0	0	440	
6	0	0	0	0	352	
7	0	0	0	0	202	
8	0	0	0	0	102	
9	0	0	0	0	136	
10	0	0	0	0	188	
11	0	0	0	0	278	
12	0	0	0	0	411	
13	0	0	0	0	450	
14	0	0	0	0	368	
15	0	0	0	0	227	
0	0	0	0	0	99	
1	0	0	0	0	132	
2	0	0	0	0	181	
3	0	0	0	0	264	
4	0	0	0	0	392	
5	0	0	0	0	459	
6	0	0	0	0	382	
7	0	0	0	0	255	
8	0	0	0	0	95	
9	0	0	0	0	126	
10	0	0	0	0	168	
11	0	0	0	0	244	
12	0	0	0	0	360	
13	0	0	0	0	469	
14	0	0	0	0	403	
15	0	0	0	0	293	
0	0	0	0	0	103	
1	0	0	0	0	117	
2	0	0	0	0	155	
3	0	0	0	0	223	
4	0	0	0	0	328	
5	0	0	0	0	480	
6	0	0	0	0	418	
7	0	0	0	0	319	
8	0	0	0	0	139	
9	0	0	0	0	112	
10	0	0	0	0	148	
11	0	0	0	0	211	
12	0	0	0	0	308	
13	0	0	0	0	469	
14	0	0	0	0	428	
15	0	0	0	0	398	
0	0	0	0	0	397	
1	0	0	0	0	383	
2	0	0	0	0	394	
3	0	0	0	0	397	
4	0	0	0	0	383	
5	0	0	0	0	393	
6	0	0	0	0	398	
7	0	0	0	0	384	
8	0	0	0	0	391	
9	0	0	0	0	399	
10	0	0	0	0	385	
11	0	0	0	0	391	
12	0	0	0	0	400	
13	0	0	0	0	386	
14	0	0	0	0	390	
15	0	0	0	0	400	
0	0	0	0	0	386	
1	0	0	0	0	389	
2	0	0	0	0	400	
3	0	0	0	0	387	
4	0	0	0	0	387	
5	0	0	0	0	401	
6	0	0	0	0	389	
7	0	0	0	0	385	
8	0	0	0	0	401	
9	0	0	0	0	391	
10	0	0	0	0	384	
11	0	0	0	0	399	
12	0	0	0	0	391	
13	0	0	0	0	385	
14	0	0	0	0	399	
15	0	0	0	0	391	
0	0	0	0	0	384	
1	0	0	0	0	398	
2	0	0	0	0	393	
3	0	0	0	0	384	
4	0	0	0	0	397	
5	0	0	0	0	395	
6	0	0	0	0	383	
7	0	0	0	0	396	
8	0	0	0	0	396	
9	0	0	0	0	383	
10	0	0	0	0	395	
11	0	0	0	0	397	
12	0	0	0	0	382	
13	0	0	0	0	395	
14	0	0	0	0	398	
15	0	0	0	0	383	
0	0	0	0	0	392	
1	0	0	0	0	399	
2	0	0	0	0	384	
3	0	0	0	0	391	
4	0	0	0	0	399	
5	0	0	0	0	386	
6	0	0	0	0	391	
7	0	0	0	0	400	
8	0	0	0	0	386	
9	0	0	0	0	390	
10	0	0	0	0	400	
11	0	0	0	0	386	
12	0	0	0	0	388	
13	0	0	0	0	400	
14	0	0	0	0	387	
15	0	0	0	0	386	
0	0	0	0	0	401	
1	0	0	0	0	390	
2	0	0	0	0	385	
3	0	0	0	0	400	
4	0	0	0	0	391	
5	0	0	0	0	384	
6	0	0	0	0	399	
7	0	0	0	0	391	
8	0	0	0	0	384	
9	0	0	0	0	398	
10	0	0	0	0	391	
11	0	0	0	0	383	
12	0	0	0	0	397	
13	0	0	0	0	393	
14	0	0	0	0	383	
15	0	0	0	0	396	
0	0	0	0	0	395	
1	0	0	0	0	383	
2	0	0	0	0	396	
3	0	0	0	0	396	
4	0	0	0	0	382	
5	0	0	0	0	395	
6	0	0	0	0	397	
7	0	0	0	0	382	
8	0	0	0	0	393	
9	0	0	0	0	398	
10	0	0	0	0	384	
11	0	0	0	0	391	
12	0	0	0	0	399	
13	0	0	0	0	385	
14	0	0	0	0	391	
15	0	0	0	0	399	
0	0	0	0	0	385	
1	0	0	0	0	391	
2	0	0	0	0	400	
3	0	0	0	0	385	
4	0	0	0	0	389	
5	0	0	0	0	400	
6	0	0	0	0	387	
7	0	0	0	0	386	
8	0	0	0	0	400	
9	0	0	0	0	389	
10	0	0	0	0	385	
11	0	0	0	0	400	
12	0	0	0	0	390	
13	0	0	0	0	384	
14	0	0	0	0	399	
15	0	0	0	0	391	
0	0	0	0	0	384	
1	0	0	0	0	399	
2	0	0	0	0	391	
3	0	0	0	0	384	
4	0	0	0	0	397	
5	0	0	0	0	392	
6	0	0	0	0	383	
7	0	0	0	0	396	
8	0	0	0	0	394	
9	0	0	0	0	383	
10	0	0	0	0	396	
11	0	0	0	0	396	
12	0	0	0	0	382	
13	0	0	0	0	395	
14	0	0	0	0	397	
15	0	0	0	0	382	
0	0	0	0	0	393	
1	0	0	0	0	398	
2	0	0	0	0	384	
3	0	0	0	0	391	
4	0	0	0	0	399	
5	0	0	0	0	385	
6	0	0	0	0	390	
7	0	0	0	0	399	
8	0	0	0	0	385	
9	0	0	0	0	390	
10	0	0	0	0	399	
11	0	0	0	0	385	
12	0	0	0	0	388	
13	0	0	0	0	400	
14	0	0	0	0	386	
15	0	0	0	0	387	
0	0	0	0	0	399	
1	0	0	0	0	389	
2	0	0	0	0	385	
3	0	0	0	0	400	
4	0	0	0	0	390	
5	0	0	0	0	384	
6	0	0	0	0	399	
7	0	0	0	0	390	
8	0	0	0	0	384	
9	0	0	0	0	398	
10	0	0	0	0	391	
11	0	0	0	0	383	
12	0	0	0	0	397	
13	0	0	0	0	392	
14	0	0	0	0	383	
15	0	0	0	0	396	
0	0	0	0	0	395	
1	0	0	0	0	383	
2	0	0	0	0	396	
3	0	0	0	0	396	
4	0	0	0	0	382	
5	0	0	0	0	395	
6	0	0	0	0	397	
7	0	0	0	0	382	
8	0	0	0	0	393	
9	0	0	0	0	398	
10	0	0	0	0	384	
11	0	0	0	0	391	
12	0	0	0	0	398	
13	0	0	0	0	385	
14	0	0	0	0	390	
15	0	0	0	0	399	
0	0	0	0	0	385	
1	0	0	0	0	390	
2	0	0	0	0	399	
3	0	0	0	0	385	
4	0	0	0	0	387	
5	0	0	0	0	400	
6	0	0	0	0	387	
7	0	0	0	0	386	
8	0	0	0	0	400	
9	0	0	0	0	389	
10	0	0	0	0	385	
11	0	0	0	0	399	
12	0	0	0	0	390	
13	0	0	0	0	384	
14	0	0	0	0	399	
15	0	0	0	0	391	
0	0	0	0	0	384	
1	0	0	0	0	398	
2	0	0	0	0	391	
3	0	0	0	0	383	
4	0	0	0	0	396	
5	0	0	0	0	394	
6	0	0	0	0	383	
7	0	0	0	0	396	
8	0	0	0	0	396	
9	0	0	0	0	383	
10	0	0	0	0	395	
11	0	0	0	0	397	
12	0	0	0	0	383	
13	0	0	0	0	395	
14	0	0	0	0	398	
15	0	0	0	0	384	
0	0	0	0	0	393	
1	0	0	0	0	400	
2	0	0	0	0	386	
3	0	0	0	0	392	
4	0	0	0	0	401	
5	0	0	0	0	388	
6	0	0	0	0	393	
7	0	0	0	0	402	
8	0	0	0	0	388	
9	0	0	0	0	392	
10	0	0	0	0	403	
11	0	0	0	0	390	
12	0	0	0	0	391	
13	0	0	0	0	404	
14	0	0	0	0	393	
15	0	0	0	0	389	
0	0	0	0	0	405	
1	0	0	0	0	396	
2	0	0	0	0	389	
3	0	0	0	0	404	
4	0	0	0	0	396	
5	0	0	0	0	390	
6	0	0	0	0	404	
7	0	0	0	0	397	
8	0	0	0	0	390	
9	0	0	0	0	403	
10	0	0	0	0	399	
11	0	0	0	0	390	
12	0	0	0	0	404	
13	0	0	0	0	403	
14	0	0	0	0	390	
15	0	0	0	0	403	
0	0	0	0	0	405	
1	0	0	0	0	391	
2	0	0	0	0	404	
3	0	0	0	0	408	
4	0	0	0	0	395	
5	0	0	0	0	407	
6	0	0	0	0	415	
7	0	0	0	0	402	
8	0	0	0	0	411	
9	0	0	0	0	422	
10	0	0	0	0	409	
11	0	0	0	0	417	
12	0	0	0	0	431	
13	0	0	0	0	420	
14	0	0	0	0	427	
15	0	0	0	0	444	
0	0	0	0	0	433	
1	0	0	0	0	440	
2	0	0	0	0	458	
3	0	0	0	0	449	
4	0	0	0	0	451	
5	0	0	0	0	474	
6	0	0	0	0	467	
7	0	0	0	0	465	
8	0	0	0	0	488	
9	0	0	0	0	483	
10	0	0	0	0	479	
11	0	0	0	0	502	
12	0	0	0	0	499	
13	0	0	0	0	497	
14	0	0	0	0	523	
15	0	0	0	0	526	
0	0	0	0	0	524	
1	0	0	0	0	555	
2	0	0	0	0	566	
3	0	0	0	0	566	
4	0	0	0	0	605	
5	0	0	0	0	629	
6	0	0	0	0	630	
7	0	0	0	0	674	
8	0	0	0	0	705	
9	0	0	0	0	705	
10	0	0	0	0	749	
11	0	0	0	0	786	
12	0	0	0	0	789	
13	0	0	0	0	835	
14	0	0	0	0	886	
15	0	0	0	0	897	
0	0	0	0	0	948	
1	0	0	0	0	968	
2	0	0	0	0	970	
3	0	0	0	0	975	
4	0	0	0	0	978	
5	0	0	0	0	979	
6	0	0	0	0	981	
7	0	0	0	0	983	
8	0	0	0	0	984	
9	0	0	0	0	985	
10	0	0	0	0	987	
11	0	0	0	0	987	
12	0	0	0	0	988	
13	0	0	0	0	990	
14	0	0	0	0	991	
15	0	0	0	0	991	
0	0	0	0	0	993	
1	0	0	0	0	994	
2	0	0	0	0	994	
3	0	0	0	0	995	
4	0	0	0	0	996	
5	0	0	0	0	997	
6	0	0	0	0	998	
7	0	0	0	0	999	
8	0	0	0	0	999	
9	0	0	0	0	1000	
10	0	0	0	0	1001	
11	0	0	0	0	1001	
12	0	0	0	0	1002	
13	0	0	0	0	1003	
14	0	0	0	0	1003	
15	0	0	0	0	1003	
0	0	0	0	0	1004	
1	0	0	0	0	1004	
2	0	0	0	0	1005	
3	0	0	0	0	1005	
4	0	0	0	0	1005	
5	0	0	0	0	1006	
6	0	0	0	0	1006	
7	0	0	0	0	1006	
8	0	0	0	0	1006	
9	0	0	0	0	1006	
10	0	0	0	0	1006	
11	0	0	0	0	1006	
12	0	0	0	0	1007	
13	0	0	0	0	1007	
14	0	0	0	0	1007	
15	0	0	0	0	1007	
0	0	0	0	0	1007	
1	0	0	0	0	1007	
2	0	0	0	0	1007	
3	0	0	0	0	1007	
4	0	0	0	0	1007	
5	0	0	0	0	1007	
6	0	0	0	0	1007	
7	0	0	0	0	1007	
8	0	0	0	0	1008	
9	0	0	0	0	1008	
10	0	0	0	0	1007	
11	0	0	0	0	1007	
12	0	0	0	0	1008	
13	0	0	0	0	1008	
14	0	0	0	0	1008	
15	0	0	0	0	1008	
0	0	0	0	0	1007	
1	0	0	0	0	1008	
2	0	0	0	0	1008	
3	0	0	0	0	1008	
4	0	0	0	0	1008	
5	0	0	0	0	1008	
6	0	0	0	0	1008	
7	0	0	0	0	1008	
8	0	0	0	0	1009	
9	0	0	0	0	1009	
10	0	0	0	0	1009	
11	0	0	0	0	1009	
12	0	0	0	0	1009	
13	0	0	0	0	1009	
14	0	0	0	0	1009	
15	0	0	0	0	1009	
0	0	0	0	0	1009	
1	0	0	0	0	1009	
2	0	0	0	0	1009	
3	0	0	0	0	1009	
4	0	0	0	0	1009	
5	0	0	0	0	1009	
6	0	0	0	0	1008	
7	0	0	0	0	1009	
8	0	0	0	0	1008	
9	0	0	0	0	1008	
10	0	0	0	0	1008	
11	0	0	0	0	1008	
12	0	0	0	0	1008	
13	0	0	0	0	1008	
14	0	0	0	0	1008	
15	0	0	0	0	1007	
0	0	0	0	0	1007	
1	0	0	0	0	1007	
2	0	0	0	0	1006	
3	0	0	0	0	1006	
4	0	0	0	0	1006	
5	0	0	0	0	1006	
6	0	0	0	0	1005	
7	0	0	0	0	1005	
8	0	0	0	0	1004	
9	0	0	0	0	1004	
10	0	0	0	0	1003	
11	0	0	0	0	1003	
12	0	0	0	0	1002	
13	0	0	0	0	1002	
14	0	0	0	0	1001	
15	0	0	0	0	1000	
0	0	0	0	0	1000	
1	0	0	0	0	999	
2	0	0	0	0	998	
3	0	0	0	0	997	
4	0	0	0	0	997	
5	0	0	0	0	996	
6	0	0	0	0	995	
7	0	0	0	0	994	
8	0	0	0	0	993	
9	0	0	0	0	992	
10	0	0	0	0	991	
11	0	0	0	0	990	
12	0	0	0	0	989	
13	0	0	0	0	988	
14	0	0	0	0	986	
15	0	0	0	0	985	
0	0	0	0	0	983	
1	0	0	0	0	980	
2	0	0	0	0	979	
3	0	0	0	0	976	
4	0	0	0	0	969	
5	0	0	0	0	966	
6	0	0	0	0	953	
7	0	0	0	0	879	
8	0	0	0	0	855	
9	0	0	0	0	820	
10	0	0	0	0	754	
11	0	0	0	0	732	
12	0	0	0	0	714	
13	0	0	0	0	660	
14	0	0	0	0	643	
15	0	0	0	0	632	
0	0	0	0	0	587	
1	0	0	0	0	571	
2	0	0	0	0	565	
3	0	0	0	0	526	
4	0	0	0	0	508	
5	0	0	0	0	505	
6	0	0	0	0	473	
7	0	0	0	0	454	
8	0	0	0	0	455	
9	0	0	0	0	432	
10	0	0	0	0	414	
11	0	0	0	0	417	
12	0	0	0	0	398	
13	0	0	0	0	381	
14	0	0	0	0	384	
15	0	0	0	0	367	
0	0	0	0	0	350	
1	0	0	0	0	353	
2	0	0	0	0	341	
3	0	0	0	0	323	
4	0	0	0	0	327	
5	0	0	0	0	318	
6	0	0	0	0	300	
7	0	0	0	0	303	
8	0	0	0	0	297	
9	0	0	0	0	281	
10	0	0	0	0	283	
11	0	0	0	0	279	
12	0	0	0	0	263	
13	0	0	0	0	263	
14	0	0	0	0	262	
15	0	0	0	0	248	
0	0	0	0	0	247	
1	0	0	0	0	248	
2	0	0	0	0	234	
3	0	0	0	0	232	
4	0	0	0	0	235	
5	0	0	0	0	223	
6	0	0	0	0	220	
7	0	0	0	0	223	
8	0	0	0	0	213	
9	0	0	0	0	210	
10	0	0	0	0	213	
11	0	0	0	0	205	
12	0	0	0	0	199	
13	0	0	0	0	205	
14	0	0	0	0	197	
15	0	0	0	0	191	
0	0	0	0	0	196	
1	0	0	0	0	192	
2	0	0	0	0	185	
3	0	0	0	0	189	
4	0	0	0	0	186	
5	0	0	0	0	181	
6	0	0	0	0	184	
7	0	0	0	0	182	
8	0	0	0	0	176	
9	0	0	0	0	181	
10	0	0	0	0	180	
11	0	0	0	0	172	
12	0	0	0	0	177	
13	0	0	0	0	178	
14	0	0	0	0	171	
15	0	0	0	0	173	
0	0	0	0	0	176	
1	0	0	0	0	171	
2	0	0	0	0	171	
3	0	0	0	0	173	
4	0	0	0	0	167	
5	0	0	0	0	170	
6	0	0	0	0	172	
7	0	0	0	0	166	
8	0	0	0	0	167	
9	0	0	0	0	172	
10	0	0	0	0	167	
11	0	0	0	0	166	
12	0	0	0	0	171	
13	0	0	0	0	167	
14	0	0	0	0	165	
15	0	0	0	0	170	
0	0	0	0	0	167	
1	0	0	0	0	166	
2	0	0	0	0	171	
3	0	0	0	0	168	
4	0	0	0	0	167	
5	0	0	0	0	173	
6	0	0	0	0	171	
7	0	0	0	0	168	
8	0	0	0	0	174	
9	0	0	0	0	175	
10	0	0	0	0	170	
11	0	0	0	0	176	
12	0	0	0	0	178	
13	0	0	0	0	175	
14	0	0	0	0	180	
15	0	0	0	0	184	
0	0	0	0	0	181	
1	0	0	0	0	187	
2	0	0	0	0	191	
3	0	0	0	0	187	
4	0	0	0	0	193	
5	0	0	0	0	199	
6	0	0	0	0	195	
7	0	0	0	0	200	
8	0	0	0	0	209	
9	0	0	0	0	207	
10	0	0	0	0	212	
11	0	0	0	0	223	
12	0	0	0	0	222	
13	0	0	0	0	227	
14	0	0	0	0	240	
15	0	0	0	0	239	
0	0	0	0	0	242	
1	0	0	0	0	258	
2	0	0	0	0	258	
3	0	0	0	0	261	
4	0	0	0	0	279	
5	0	0	0	0	284	
6	0	0	0	0	289	
7	0	0	0	0	311	
8	0	0	0	0	319	
9	0	0	0	0	325	
10	0	0	0	0	348	
11	0	0	0	0	359	
12	0	0	0	0	361	
13	0	0	0	0	391	
14	0	0	0	0	410	
15	0	0	0	0	415	
0	0	0	0	0	451	
1	0	0	0	0	480	
2	0	0	0	0	485	
3	0	0	0	0	521	
4	0	0	0	0	554	
5	0	0	0	0	559	
6	0	0	0	0	595	
7	0	0	0	0	636	
8	0	0	0	0	645	
9	0	0	0	0	687	
10	0	0	0	0	741	
11	0	0	0	0	754	
12	0	0	0	0	801	
13	0	0	0	0	869	
14	0	0	0	0	888	
15	0	0	0	0	935	
0	0	0	0	0	968	
1	0	0	0	0	972	
2	0	0	0	0	975	
3	0	0	0	0	980	
4	0	0	0	0	982	
5	0	0	0	0	984	
6	0	0	0	0	986	
7	0	0	0	0	987	
8	0	0	0	0	988	
9	0	0	0	0	990	
10	0	0	0	0	991	
11	0	0	0	0	992	
12	0	0	0	0	993	
13	0	0	0	0	994	
14	0	0	0	0	995	
15	0	0	0	0	996	
0	0	0	0	0	997	
1	0	0	0	0	998	
2	0	0	0	0	999	
3	0	0	0	0	999	
4	0	0	0	0	1000	
5	0	0	0	0	1001	
6	0	0	0	0	1001	
7	0	0	0	0	1002	
8	0	0	0	0	1003	
9	0	0	0	0	1003	
10	0	0	0	0	1003	
11	0	0	0	0	1004	
12	0	0	0	0	1005	
13	0	0	0	0	1005	
14	0	0	0	0	1005	
15	0	0	0	0	1005	
0	0	0	0	0	1006	
1	0	0	0	0	1006	
2	0	0	0	0	1006	
3	0	0	0	0	1006	
4	0	0	0	0	1006	
5	0	0	0	0	1007	
6	0	0	0	0	1007	
7	0	0	0	0	1006	
8	0	0	0	0	1007	
9	0	0	0	0	1007	
10	0	0	0	0	1007	
11	0	0	0	0	1008	
12	0	0	0	0	1008	
13	0	0	0	0	1008	
14	0	0	0	0	1008	
15	0	0	0	0	1008	
0	0	0	0	0	1007	
1	0	0	0	0	1008	
2	0	0	0	0	1008	
3	0	0	0	0	1008	
4	0	0	0	0	1008	
5	0	0	0	0	1008	
6	0	0	0	0	1008	
7	0	0	0	0	1008	
8	0	0	0	0	1008	
9	0	0	0	0	1008	
10	0	0	0	0	1008	
11	0	0	0	0	1008	
12	0	0	0	0	1008	
13	0	0	0	0	1008	
14	0	0	0	0	1007	
15	0	0	0	0	1006	
0	0	0	0	0	1006	
1	0	0	0	0	1006	
2	0	0	0	0	1005	
3	0	0	0	0	1004	
4	0	0	0	0	1004	
5	0	0	0	0	1004	
6	0	0	0	0	1002	
7	0	0	0	0	1001	
8	0	0	0	0	1001	
9	0	0	0	0	999	
10	0	0	0	0	999	
11	0	0	0	0	997	
12	0	0	0	0	996	
13	0	0	0	0	995	
14	0	0	0	0	994	
15	0	0	0	0	992	
0	0	0	0	0	991	
1	0	0	0	0	990	
2	0	0	0	0	987	
3	0	0	0	0	986	
4	0	0	0	0	984	
5	0	0	0	0	979	
6	0	0	0	0	977	
7	0	0	0	0	973	
8	0	0	0	0	953	
9	0	0	0	0	910	
10	0	0	0	0	862	
11	0	0	0	0	777	
12	0	0	0	0	737	
13	0	0	0	0	706	
14	0	0	0	0	637	
15	0	0	0	0	602	
0	0	0	0	0	581	
1	0	0	0	0	529	
2	0	0	0	0	501	
3	0	0	0	0	491	
4	0	0	0	0	454	
5	0	0	0	0	431	
6	0	0	0	0	428	
7	0	0	0	0	400	
8	0	0	0	0	378	
9	0	0	0	0	379	
10	0	0	0	0	359	
11	0	0	0	0	342	
12	0	0	0	0	345	
13	0	0	0	0	333	
14	0	0	0	0	316	
15	0	0	0	0	319	
0	0	0	0	0	309	
1	0	0	0	0	293	
2	0	0	0	0	295	
3	0	0	0	0	288	
4	0	0	0	0	273	
5	0	0	0	0	277	
6	0	0	0	0	274	
7	0	0	0	0	259	
8	0	0	0	0	262	
9	0	0	0	0	262	
10	0	0	0	0	248	
11	0	0	0	0	248	
12	0	0	0	0	249	
13	0	0	0	0	238	
14	0	0	0	0	236	
15	0	0	0	0	238	
0	0	0	0	0	227	
1	0	0	0	0	227	
2	0	0	0	0	230	
3	0	0	0	0	220	
4	0	0	0	0	218	
5	0	0	0	0	223	
6	0	0	0	0	215	
7	0	0	0	0	210	
8	0	0	0	0	216	
9	0	0	0	0	210	
10	0	0	0	0	204	
11	0	0	0	0	209	
12	0	0	0	0	205	
13	0	0	0	0	201	
14	0	0	0	0	205	
15	0	0	0	0	202	
0	0	0	0	0	197	
1	0	0	0	0	203	
2	0	0	0	0	201	
3	0	0	0	0	194	
4	0	0	0	0	200	
5	0	0	0	0	201	
6	0	0	0	0	193	
7	0	0	0	0	198	
8	0	0	0	0	199	
9	0	0	0	0	194	
10	0	0	0	0	197	
11	0	0	0	0	199	
12	0	0	0	0	193	
13	0	0	0	0	197	
14	0	0	0	0	200	
15	0	0	0	0	193	
0	0	0	0	0	196	
1	0	0	0	0	202	
2	0	0	0	0	195	
3	0	0	0	0	195	
4	0	0	0	0	202	
5	0	0	0	0	197	
6	0	0	0	0	196	
7	0	0	0	0	202	
8	0	0	0	0	198	
9	0	0	0	0	197	
10	0	0	0	0	204	
11	0	0	0	0	199	
12	0	0	0	0	197	
13	0	0	0	0	205	
14	0	0	0	0	201	
15	0	0	0	0	198	
0	0	0	0	0	205	
1	0	0	0	0	204	
2	0	0	0	0	199	
3	0	0	0	0	206	
4	0	0	0	0	207	
5	0	0	0	0	202	
6	0	0	0	0	208	
7	0	0	0	0	209	
8	0	0	0	0	204	
9	0	0	0	0	210	
10	0	0	0	0	213	
11	0	0	0	0	206	
12	0	0	0	0	211	
13	0	0	0	0	216	
14	0	0	0	0	210	
15	0	0	0	0	214	
0	0	0	0	0	220	
1	0	0	0	0	215	
2	0	0	0	0	217	
3	0	0	0	0	39	
4	0	0	0	0	41	
5	0	0	0	0	42	
6	0	0	0	0	40	
7	0	0	0	0	39	
8	0	0	0	0	40	
9	0	0	0	0	42	
10	0	0	0	0	40	
11	0	0	0	0	39	
12	0	0	0	0	40	
13	0	0	0	0	41	
14	0	0	0	0	40	
15	0	0	0	0	38	
0	0	0	0	0	39	
1	0	0	0	0	41	
2	0	0	0	0	39	
3	0	0	0	0	38	
4	0	0	0	0	39	
5	0	0	0	0	41	
6	0	0	0	0	39	
7	0	0	0	0	38	
8	0	0	0	0	39	
9	0	0	0	0	41	
10	0	0	0	0	39	
11	0	0	0	0	38	
12	0	0	0	0	39	
13	0	0	0	0	41	
14	0	0	0	0	39	
15	0	0	0	0	39	
0	0	0	0	0	40	
1	0	0	0	0	41	
2	0	0	0	0	40	
3	0	0	0	0	39	
4	0	0	0	0	40	
5	0	0	0	0	42	
6	0	0	0	0	40	
7	0	0	0	0	39	
8	0	0	0	0	40	
9	0	0	0	0	42	
10	0	0	0	0	40	
11	0	0	0	0	38	
12	0	0	0	0	39	
13	0	0	0	0	39	
14	0	0	0	0	38	
15	0	0	0	0	37	
0	0	0	0	0	38	
1	0	0	0	0	41	
2	0	0	0	0	40	
3	0	0	0	0	39	
4	0	0	0	0	40	
5	0	0	0	0	42	
6	0	0	0	0	40	
7	0	0	0	0	39	
8	0	0	0	0	41	
9	0	0	0	0	43	
10	0	0	0	0	41	
11	0	0	0	0	39	
12	0	0	0	0	41	
13	0	0	0	0	42	
14	0	0	0	0	41	
15	0	0	0	0	39	
0	0	0	0	0	40	
1	0	0	0	0	42	
2	0	0	0	0	40	
3	0	0	0	0	39	
4	0	0	0	0	40	
5	0	0	0	0	41	
6	0	0	0	0	40	
7	0	0	0	0	39	
8	0	0	0	0	39	
9	0	0	0	0	41	
10	0	0	0	0	39	
11	0	0	0	0	39	
12	0	0	0	0	40	
13	0	0	0	0	41	
14	0	0	0	0	39	
15	0	0	0	0	38	
0	0	0	0	0	39	
1	0	0	0	0	40	
2	0	0	0	0	38	
3	0	0	0	0	36	
4	0	0	0	0	38	
5	0	0	0	0	39	
6	0	0	0	0	38	
7	0	0	0	0	36	
8	0	0	0	0	38	
9	0	0	0	0	39	
10	0	0	0	0	38	
11	0	0	0	0	36	
12	0	0	0	0	38	
13	0	0	0	0	39	
14	0	0	0	0	38	
15	0	0	0	0	37	
0	0	0	0	0	38	
1	0	0	0	0	40	
2	0	0	0	0	39	
3	0	0	0	0	38	
4	0	0	0	0	39	
5	0	0	0	0	40	
6	0	0	0	0	39	
7	0	0	0	0	37	
8	0	0	0	0	39	
9	0	0	0	0	40	
10	0	0	0	0	38	
11	0	0	0	0	37	
12	0	0	0	0	38	
13	0	0	0	0	40	
14	0	0	0	0	38	
15	0	0	0	0	37	
0	0	0	0	0	39	
1	0	0	0	0	40	
2	0	0	0	0	39	
3	0	0	0	0	37	
4	0	0	0	0	38	
5	0	0	0	0	39	
6	0	0	0	0	38	
7	0	0	0	0	37	
8	0	0	0	0	39	
9	0	0	0	0	41	
10	0	0	0	0	40	
11	0	0	0	0	39	
12	0	0	0	0	41	
13	0	0	0	0	44	
14	0	0	0	0	43	
15	0	0	0	0	43	
0	0	0	0	0	45	
1	0	0	0	0	48	
2	0	0	0	0	48	
3	0	0	0	0	48	
4	0	0	0	0	51	
5	0	0	0	0	53	
6	0	0	0	0	52	
7	0	0	0	0	52	
8	0	0	0	0	54	
9	0	0	0	0	56	
10	0	0	0	0	55	
11	0	0	0	0	55	
12	0	0	0	0	56	
13	0	0	0	0	59	
14	0	0	0	0	58	
15	0	0	0	0	58	
0	0	0	0	0	60	
1	0	0	0	0	62	
2	0	0	0	0	61	
3	0	0	0	0	61	
4	0	0	0	0	62	
5	0	0	0	0	64	
6	0	0	0	0	63	
7	0	0	0	0	61	
8	0	0	0	0	63	
9	0	0	0	0	64	
10	0	0	0	0	63	
11	0	0	0	0	62	
12	0	0	0	0	64	
13	0	0	0	0	66	
14	0	0	0	0	66	
15	0	0	0	0	65	
0	0	0	0	0	67	
1	0	0	0	0	68	
2	0	0	0	0	67	
3	0	0	0	0	65	
4	0	0	0	0	66	
5	0	0	0	0	67	
6	0	0	0	0	65	
7	0	0	0	0	64	
8	0	0	0	0	64	
9	0	0	0	0	65	
10	0	0	0	0	63	
11	0	0	0	0	61	
12	0	0	0	0	62	
13	0	0	0	0	62	
14	0	0	0	0	60	
15	0	0	0	0	59	
0	0	0	0	0	59	
1	0	0	0	0	60	
2	0	0	0	0	58	
3	0	0	0	0	56	
4	0	0	0	0	57	
5	0	0	0	0	58	
6	0	0	0	0	56	
7	0	0	0	0	54	
8	0	0	0	0	55	
9	0	0	0	0	55	
10	0	0	0	0	53	
11	0	0	0	0	51	
12	0	0	0	0	51	
13	0	0	0	0	53	
14	0	0	0	0	50	
15	0	0	0	0	49	
0	0	0	0	0	50	
1	0	0	0	0	51	
2	0	0	0	0	50	
3	0	0	0	0	48	
4	0	0	0	0	49	
5	0	0	0	0	51	
6	0	0	0	0	49	
7	0	0	0	0	48	
8	0	0	0	0	49	
9	0	0	0	0	50	
10	0	0	0	0	48	
11	0	0	0	0	47	
12	0	0	0	0	48	
13	0	0	0	0	51	
14	0	0	0	0	51	
15	0	0	0	0	51	
0	0	0	0	0	54	
1	0	0	0	0	57	
2	0	0	0	0	57	
3	0	0	0	0	56	
4	0	0	0	0	59	
5	0	0	0	0	60	
6	0	0	0	0	59	
7	0	0	0	0	57	
8	0	0	0	0	58	
9	0	0	0	0	60	
10	0	0	0	0	58	
11	0	0	0	0	57	
12	0	0	0	0	58	
13	0	0	0	0	59	
14	0	0	0	0	57	
15	0	0	0	0	56	
0	0	0	0	0	56	
1	0	0	0	0	58	
2	0	0	0	0	56	
3	0	0	0	0	55	
4	0	0	0	0	56	
5	0	0	0	0	57	
6	0	0	0	0	56	
7	0	0	0	0	55	
8	0	0	0	0	56	
9	0	0	0	0	57	
10	0	0	0	0	56	
11	0	0	0	0	55	
12	0	0	0	0	56	
13	0	0	0	0	57	
14	0	0	0	0	55	
15	0	0	0	0	54	
0	0	0	0	0	55	
1	0	0	0	0	56	
2	0	0	0	0	55	
3	0	0	0	0	55	
4	0	0	0	0	56	
5	0	0	0	0	58	
6	0	0	0	0	56	
7	0	0	0	0	55	
8	0	0	0	0	57	
9	0	0	0	0	58	
10	0	0	0	0	57	
11	0	0	0	0	56	
12	0	0	0	0	57	
13	0	0	0	0	59	
14	0	0	0	0	57	
15	0	0	0	0	56	
0	0	0	0	0	57	
1	0	0	0	0	59	
2	0	0	0	0	57	
3	0	0	0	0	55	
4	0	0	0	0	56	
5	0	0	0	0	58	
6	0	0	0	0	56	
7	0	0	0	0	55	
8	0	0	0	0	56	
9	0	0	0	0	58	
10	0	0	0	0	56	
11	0	0	0	0	55	
12	0	0	0	0	56	
13	0	0	0	0	58	
14	0	0	0	0	56	
15	0	0	0	0	55	
0	0	0	0	0	57	
1	0	0	0	0	58	
2	0	0	0	0	56	
3	0	0	0	0	55	
4	0	0	0	0	56	
5	0	0	0	0	57	
6	0	0	0	0	56	
7	0	0	0	0	55	
8	0	0	0	0	56	
9	0	0	0	0	57	
10	0	0	0	0	56	
11	0	0	0	0	54	
12	0	0	0	0	56	
13	0	0	0	0	57	
14	0	0	0	0	55	
15	0	0	0	0	55	
0	0	0	0	0	56	
1	0	0	0	0	57	
2	0	0	0	0	56	
3	0	0	0	0	55	
4	0	0	0	0	56	
5	0	0	0	0	57	
6	0	0	0	0	56	
7	0	0	0	0	54	
8	0	0	0	0	55	
9	0	0	0	0	56	
10	0	0	0	0	55	
11	0	0	0	0	54	
12	0	0	0	0	55	
13	0	0	0	0	56	
14	0	0	0	0	55	
15	0	0	0	0	54	
0	0	0	0	0	55	
1	0	0	0	0	56	
2	0	0	0	0	55	
3	0	0	0	0	53	
4	0	0	0	0	55	
5	0	0	0	0	56	
6	0	0	0	0	54	
7	0	0	0	0	53	
8	0	0	0	0	54	
9	0	0	0	0	56	
10	0	0	0	0	55	
11	0	0	0	0	54	
12	0	0	0	0	54	
13	0	0	0	0	56	
14	0	0	0	0	55	
15	0	0	0	0	54	
0	0	0	0	0	55	
1	0	0	0	0	56	
2	0	0	0	0	54	
3	0	0	0	0	53	
4	0	0	0	0	54	
5	0	0	0	0	55	
6	0	0	0	0	54	
7	0	0	0	0	53	
8	0	0	0	0	54	
9	0	0	0	0	55	
10	0	0	0	0	54	
11	0	0	0	0	53	
12	0	0	0	0	54	
13	0	0	0	0	55	
14	0	0	0	0	54	
15	0	0	0	0	52	
0	0	0	0	0	54	
1	0	0	0	0	55	
2	0	0	0	0	54	
3	0	0	0	0	52	
4	0	0	0	0	54	
5	0	0	0	0	55	
6	0	0	0	0	54	
7	0	0	0	0	52	
8	0	0	0	0	54	
9	0	0	0	0	55	
10	0	0	0	0	54	
11	0	0	0	0	52	
12	0	0	0	0	54	
13	0	0	0	0	55	
14	0	0	0	0	53	
15	0	0	0	0	52	
0	0	0	0	0	54	
1	0	0	0	0	55	
2	0	0	0	0	53	
3	0	0	0	0	52	
4	0	0	0	0	53	
5	0	0	0	0	55	
6	0	0	0	0	53	
7	0	0	0	0	52	
8	0	0	0	0	53	
9	0	0	0	0	55	
10	0	0	0	0	54	
11	0	0	0	0	52	
12	0	0	0	0	54	
13	0	0	0	0	55	
14	0	0	0	0	54	
15	0	0	0	0	53	
0	0	0	0	0	54	
1	0	0	0	0	55	
2	0	0	0	0	54	
3	0	0	0	0	52	
4	0	0	0	0	54	
5	0	0	0	0	55	
6	0	0	0	0	54	
7	0	0	0	0	53	
8	0	0	0	0	54	
9	0	0	0	0	55	
10	0	0	0	0	54	
11	0	0	0	0	53	
12	0	0	0	0	54	
13	0	0	0	0	55	
14	0	0	0	0	54	
15	0	0	0	0	53	
0	0	0	0	0	54	
1	0	0	0	0	55	
2	0	0	0	0	54	
3	0	0	0	0	53	
4	0	0	0	0	54	
5	0	0	0	0	55	
6	0	0	0	0	54	
7	0	0	0	0	53	
8	0	0	0	0	54	
9	0	0	0	0	55	
10	0	0	0	0	54	
11	0	0	0	0	52	
12	0	0	0	0	54	
13	0	0	0	0	55	
14	0	0	0	0	53	
15	0	0	0	0	52	
0	0	0	0	0	53	
1	0	0	0	0	54	
2	0	0	0	0	53	
3	0	0	0	0	51	
4	0	0	0	0	52	
5	0	0	0	0	54	
6	0	0	0	0	52	
7	0	0	0	0	51	
8	0	0	0	0	52	
9	0	0	0	0	53	
10	0	0	0	0	52	
11	0	0	0	0	51	
12	0	0	0	0	52	
13	0	0	0	0	53	
14	0	0	0	0	51	
15	0	0	0	0	50	
0	0	0	0	0	51	
1	0	0	0	0	52	
2	0	0	0	0	50	
3	0	0	0	0	49	
4	0	0	0	0	50	
5	0	0	0	0	52	
6	0	0	0	0	51	
7	0	0	0	0	49	
8	0	0	0	0	51	
9	0	0	0	0	52	
10	0	0	0	0	51	
11	0	0	0	0	50	
12	0	0	0	0	52	
13	0	0	0	0	54	
14	0	0	0	0	52	
15	0	0	0	0	51	
0	0	0	0	0	53	
1	0	0	0	0	54	
2	0	0	0	0	53	
3	0	0	0	0	52	
4	0	0	0	0	53	
5	0	0	0	0	55	
6	0	0	0	0	54	
7	0	0	0	0	53	
8	0	0	0	0	55	
9	0	0	0	0	56	
10	0	0	0	0	55	
11	0	0	0	0	54	
12	0	0	0	0	55	
13	0	0	0	0	56	
14	0	0	0	0	55	
15	0	0	0	0	53	
0	0	0	0	0	54	
1	0	0	0	0	55	
2	0	0	0	0	54	
3	0	0	0	0	52	
4	0	0	0	0	52	
5	0	0	0	0	53	
6	0	0	0	0	51	
7	0	0	0	0	49	
8	0	0	0	0	50	
9	0	0	0	0	51	
10	0	0	0	0	49	
11	0	0	0	0	48	
12	0	0	0	0	48	
13	0	0	0	0	49	
14	0	0	0	0	47	
15	0	0	0	0	45	
0	0	0	0	0	45	
1	0	0	0	0	46	
2	0	0	0	0	43	
3	0	0	0	0	41	
4	0	0	0	0	42	
5	0	0	0	0	43	
6	0	0	0	0	41	
7	0	0	0	0	39	
8	0	0	0	0	40	
9	0	0	0	0	41	
10	0	0	0	0	39	
11	0	0	0	0	36	
12	0	0	0	0	37	
13	0	0	0	0	38	
14	0	0	0	0	36	
15	0	0	0	0	34	
0	0	0	0	0	35	
1	0	0	0	0	36	
2	0	0	0	0	35	
3	0	0	0	0	33	
4	0	0	0	0	34	
5	0	0	0	0	36	
6	0	0	0	0	34	
7	0	0	0	0	33	
8	0	0	0	0	34	
9	0	0	0	0	35	
10	0	0	0	0	34	
11	0	0	0	0	33	
12	0	0	0	0	34	
13	0	0	0	0	35	
14	0	0	0	0	34	
15	0	0	0	0	32	
0	0	0	0	0	33	
1	0	0	0	0	35	
2	0	0	0	0	33	
3	0	0	0	0	32	
4	0	0	0	0	33	
5	0	0	0	0	34	
6	0	0	0	0	32	
7	0	0	0	0	30	
8	0	0	0	0	31	
9	0	0	0	0	33	
10	0	0	0	0	31	
11	0	0	0	0	30	
12	0	0	0	0	31	
13	0	0	0	0	32	
14	0	0	0	0	31	
15	0	0	0	0	29	
0	0	0	0	0	31	
1	0	0	0	0	32	
2	0	0	0	0	31	
3	0	0	0	0	29	
4	0	0	0	0	30	
5	0	0	0	0	31	
6	0	0	0	0	30	
7	0	0	0	0	28	
8	0	0	0	0	29	
9	0	0	0	0	30	
10	0	0	0	0	29	
11	0	0	0	0	27	
12	0	0	0	0	28	
13	0	0	0	0	29	
14	0	0	0	0	28	
15	0	0	0	0	27	
0	0	0	0	0	28	
1	0	0	0	0	29	
2	0	0	0	0	28	
3	0	0	0	0	26	
4	0	0	0	0	27	
5	0	0	0	0	29	
6	0	0	0	0	27	
7	0	0	0	0	25	
8	0	0	0	0	27	
9	0	0	0	0	29	
10	0	0	0	0	26	
11	0	0	0	0	25	
12	0	0	0	0	26	
13	0	0	0	0	28	
14	0	0	0	0	26	
15	0	0	0	0	25	
0	0	0	0	0	26	
1	0	0	0	0	27	
2	0	0	0	0	26	
3	0	0	0	0	24	
4	0	0	0	0	25	
5	0	0	0	0	27	
6	0	0	0	0	25	
7	0	0	0	0	24	
8	0	0	0	0	25	
9	0	0	0	0	26	
10	0	0	0	0	25	
11	0	0	0	0	23	
12	0	0	0	0	25	
13	0	0	0	0	27	
14	0	0	0	0	25	
15	0	0	0	0	24	
0	0	0	0	0	24	
1	0	0	0	0	26	
2	0	0	0	0	24	
3	0	0	0	0	22	
4	0	0	0	0	24	
5	0	0	0	0	25	
6	0	0	0	0	23	
7	0	0	0	0	22	
8	0	0	0	0	23	
9	0	0	0	0	24	
10	0	0	0	0	23	
11	0	0	0	0	21	
12	0	0	0	0	23	
13	0	0	0	0	24	
14	0	0	0	0	23	
15	0	0	0	0	22	
0	0	0	0	0	23	
1	0	0	0	0	24	
2	0	0	0	0	23	
3	0	0	0	0	21	
4	0	0	0	0	23	
5	0	0	0	0	25	
6	0	0	0	0	23	
7	0	0	0	0	21	
8	0	0	0	0	22	
9	0	0	0	0	24	
10	0	0	0	0	22	
11	0	0	0	0	20	
12	0	0	0	0	21	
13	0	0	0	0	23	
14	0	0	0	0	21	
15	0	0	0	0	19	
0	0	0	0	0	21	
1	0	0	0	0	23	
2	0	0	0	0	21	
3	0	0	0	0	19	
4	0	0	0	0	21	
5	0	0	0	0	23	
6	0	0	0	0	21	
7	0	0	0	0	20	
8	0	0	0	0	22	
9	0	0	0	0	23	
10	0	0	0	0	22	
11	0	0	0	0	20	
12	0	0	0	0	21	
13	0	0	0	0	23	
14	0	0	0	0	21	
15	0	0	0	0	19	
0	0	0	0	0	20	
1	0	0	0	0	22	
2	0	0	0	0	19	
3	0	0	0	0	18	
4	0	0	0	0	19	
5	0	0	0	0	20	
6	0	0	0	0	19	
7	0	0	0	0	18	
8	0	0	0	0	19	
9	0	0	0	0	21	
10	0	0	0	0	19	
11	0	0	0	0	18	
12	0	0	0	0	19	
13	0	0	0	0	22	
14	0	0	0	0	20	
15	0	0	0	0	19	
0	0	0	0	0	20	
1	0	0	0	0	22	
2	0	0	0	0	20	
3	0	0	0	0	18	
4	0	0	0	0	19	
5	0	0	0	0	21	
6	0	0	0	0	19	
7	0	0	0	0	17	
8	0	0	0	0	19	
9	0	0	0	0	20	
10	0	0	0	0	18	
11	0	0	0	0	16	
12	0	0	0	0	18	
13	0	0	0	0	20	
14	0	0	0	0	18	
15	0	0	0	0	17	
0	0	0	0	0	19	
1	0	0	0	0	20	
2	0	0	0	0	19	
3	0	0	0	0	18	
4	0	0	0	0	19	
5	0	0	0	0	21	
6	0	0	0	0	19	
7	0	0	0	0	18	
8	0	0	0	0	19	
9	0	0	0	0	20	
10	0	0	0	0	19	
11	0	0	0	0	17	
12	0	0	0	0	18	
13	0	0	0	0	20	
14	0	0	0	0	18	
15	0	0	0	0	16	
0	0	0	0	0	17	
1	0	0	0	0	19	
2	0	0	0	0	17	
3	0	0	0	0	16	
4	0	0	0	0	17	
5	0	0	0	0	20	
6	0	0	0	0	18	
7	0	0	0	0	17	
8	0	0	0	0	18	
9	0	0	0	0	20	
10	0	0	0	0	19	
11	0	0	0	0	17	
12	0	0	0	0	19	
13	0	0	0	0	20	
14	0	0	0	0	18	
15	0	0	0	0	17	
0	0	0	0	0	18	
1	0	0	0	0	19	
2	0	0	0	0	17	
3	0	0	0	0	16	
4	0	0	0	0	17	
5	0	0	0	0	19	
6	0	0	0	0	17	
7	0	0	0	0	15	
8	0	0	0	0	17	
9	0	0	0	0	19	
10	0	0	0	0	17	
11	0	0	0	0	16	
12	0	0	0	0	17	
13	0	0	0	0	19	
14	0	0	0	0	17	
15	0	0	0	0	16	
0	0	0	0	0	18	
1	0	0	0	0	20	
2	0	0	0	0	18	
3	0	0	0	0	16	
4	0	0	0	0	18	
5	0	0	0	0	19	
6	0	0	0	0	17	
7	0	0	0	0	16	
8	0	0	0	0	17	
9	0	0	0	0	19	
10	0	0	0	0	16	
11	0	0	0	0	15	
12	0	0	0	0	16	
13	0	0	0	0	18	
14	0	0	0	0	16	
15	0	0	0	0	15	
0	0	0	0	0	17	
1	0	0	0	0	19	
2	0	0	0	0	17	
3	0	0	0	0	15	
4	0	0	0	0	17	
5	0	0	0	0	19	
6	0	0	0	0	17	
7	0	0	0	0	16	
8	0	0	0	0	18	
9	0	0	0	0	19	
10	0	0	0	0	17	
11	0	0	0	0	15	
12	0	0	0	0	17	
13	0	0	0	0	19	
14	0	0	0	0	17	
15	0	0	0	0	15	
0	0	0	0	0	16	
1	0	0	0	0	18	
2	0	0	0	0	16	
3	0	0	0	0	14	
4	0	0	0	0	16	
5	0	0	0	0	18	
6	0	0	0	0	17	
7	0	0	0	0	15	
8	0	0	0	0	17	
9	0	0	0	0	19	
10	0	0	0	0	17	
11	0	0	0	0	16	
12	0	0	0	0	17	
13	0	0	0	0	19	
14	0	0	0	0	17	
15	0	0	0	0	15	
0	0	0	0	0	17	
1	0	0	0	0	18	
2	0	0	0	0	17	
3	0	0	0	0	15	
4	0	0	0	0	16	
5	0	0	0	0	17	
6	0	0	0	0	15	
7	0	0	0	0	14	
8	0	0	0	0	15	
9	0	0	0	0	17	
10	0	0	0	0	15	
11	0	0	0	0	14	
12	0	0	0	0	16	
13	0	0	0	0	17	
14	0	0	0	0	16	
15	0	0	0	0	15	
0	0	0	0	0	16	
1	0	0	0	0	18	
2	0	0	0	0	16	
3	0	0	0	0	15	
4	0	0	0	0	17	
5	0	0	0	0	18	
6	0	0	0	0	16	
7	0	0	0	0	15	
8	0	0	0	0	16	
9	0	0	0	0	17	
10	0	0	0	0	15	
11	0	0	0	0	14	
12	0	0	0	0	15	
13	0	0	0	0	17	
14	0	0	0	0	15	
15	0	0	0	0	13	
0	0	0	0	0	15	
1	0	0	0	0	17	
2	0	0	0	0	15	
3	0	0	0	0	14	
4	0	0	0	0	16	
5	0	0	0	0	18	
6	0	0	0	0	16	
7	0	0	0	0	15	
8	0	0	0	0	17	
9	0	0	0	0	18	
10	0	0	0	0	17	
11	0	0	0	0	15	
12	0	0	0	0	16	
13	0	0	0	0	18	
14	0	0	0	0	16	
15	0	0	0	0	14	
0	0	0	0	0	15	
1	0	0	0	0	17	
2	0	0	0	0	15	
3	0	0	0	0	13	
4	0	0	0	0	15	
5	0	0	0	0	17	
6	0	0	0	0	15	
7	0	0	0	0	13	
8	0	0	0	0	15	
9	0	0	0	0	17	
10	0	0	0	0	15	
11	0	0	0	0	14	
12	0	0	0	0	16	
13	0	0	0	0	18	
14	0	0	0	0	16	
15	0	0	0	0	15	
0	0	0	0	0	16	
1	0	0	0	0	17	
2	0	0	0	0	16	
3	0	0	0	0	14	
4	0	0	0	0	15	
5	0	0	0	0	17	
6	0	0	0	0	15	
7	0	0	0	0	13	
8	0	0	0	0	15	
9	0	0	0	0	16	
10	0	0	0	0	14	
11	0	0	0	0	13	
12	0	0	0	0	15	
13	0	0	0	0	16	
14	0	0	0	0	15	
15	0	0	0	0	14	
0	0	0	0	0	15	
1	0	0	0	0	17	
2	0	0	0	0	16	
3	0	0	0	0	14	
4	0	0	0	0	16	
5	0	0	0	0	18	
6	0	0	0	0	15	
7	0	0	0	0	14	
8	0	0	0	0	15	
9	0	0	0	0	17	
10	0	0	0	0	15	
11	0	0	0	0	13	
12	0	0	0	0	15	
13	0	0	0	0	16	
14	0	0	0	0	14	
15	0	0	0	0	12	
0	0	0	0	0	14	
1	0	0	0	0	16	
2	0	0	0	0	14	
3	0	0	0	0	13	
4	0	0	0	0	15	
5	0	0	0	0	17	
6	0	0	0	0	15	
7	0	0	0	0	14	
8	0	0	0	0	15	
9	0	0	0	0	17	
10	0	0	0	0	16	
11	0	0	0	0	14	
12	0	0	0	0	15	
13	0	0	0	0	17	
14	0	0	0	0	15	
15	0	0	0	0	13	
0	0	0	0	0	15	
1	0	0	0	0	16	
2	0	0	0	0	15	
3	0	0	0	0	13	
4	0	0	0	0	14	
5	0	0	0	0	15	
6	0	0	0	0	14	
7	0	0	0	0	13	
8	0	0	0	0	14	
9	0	0	0	0	16	
10	0	0	0	0	15	
11	0	0	0	0	13	
12	0	0	0	0	15	
13	0	0	0	0	16	
14	0	0	0	0	15	
15	0	0	0	0	14	
0	0	0	0	0	15	
1	0	0	0	0	17	
2	0	0	0	0	15	
3	0	0	0	0	14	
4	0	0	0	0	15	
5	0	0	0	0	16	
6	0	0	0	0	14	
7	0	0	0	0	13	
8	0	0	0	0	14	
9	0	0	0	0	15	
10	0	0	0	0	14	
11	0	0	0	0	12	
12	0	0	0	0	13	
13	0	0	0	0	15	
14	0	0	0	0	14	
15	0	0	0	0	13	
0	0	0	0	0	14	
1	0	0	0	0	16	
2	0	0	0	0	14	
3	0	0	0	0	13	
4	0	0	0	0	15	
5	0	0	0	0	16	
6	0	0	0	0	15	
7	0	0	0	0	13	
8	0	0	0	0	15	
9	0	0	0	0	16	
10	0	0	0	0	14	
11	0	0	0	0	12	
12	0	0	0	0	14	
13	0	0	0	0	15	
14	0	0	0	0	14	
15	0	0	0	0	12	
0	0	0	0	0	13	
1	0	0	0	0	15	
2	0	0	0	0	13	
3	0	0	0	0	12	
4	0	0	0	0	13	
5	0	0	0	0	15	
6	0	0	0	0	14	
7	0	0	0	0	12	
8	0	0	0	0	14	
9	0	0	0	0	16	
10	0	0	0	0	15	
11	0	0	0	0	13	
12	0	0	0	0	15	
13	0	0	0	0	16	
14	0	0	0	0	14	
15	0	0	0	0	13	
0	0	0	0	0	14	
1	0	0	0	0	15	
2	0	0	0	0	14	
3	0	0	0	0	12	
4	0	0	0	0	13	
5	0	0	0	0	15	
6	0	0	0	0	13	
7	0	0	0	0	11	
8	0	0	0	0	12	
9	0	0	0	0	15	
10	0	0	0	0	13	
11	0	0	0	0	12	
12	0	0	0	0	13	
13	0	0	0	0	15	
14	0	0	0	0	14	
15	0	0	0	0	13	
0	0	0	0	0	14	
1	0	0	0	0	16	
2	0	0	0	0	14	
3	0	0	0	0	12	
4	0	0	0	0	14	
5	0	0	0	0	16	
6	0	0	0	0	14	
7	0	0	0	0	12	
8	0	0	0	0	13	
9	0	0	0	0	15	
10	0	0	0	0	13	
11	0	0	0	0	11	
12	0	0	0	0	13	
13	0	0	0	0	14	
14	0	0	0	0	13	
15	0	0	0	0	11	
0	0	0	0	0	13	
1	0	0	0	0	15	
2	0	0	0	0	13	
3	0	0	0	0	12	
4	0	0	0	0	14	
5	0	0	0	0	15	
6	0	0	0	0	14	
7	0	0	0	0	13	
8	0	0	0	0	14	
9	0	0	0	0	15	
10	0	0	0	0	14	
11	0	0	0	0	12	
12	0	0	0	0	13	
13	0	0	0	0	15	
14	0	0	0	0	13	
15	0	0	0	0	11	
0	0	0	0	0	12	
1	0	0	0	0	14	
2	0	0	0	0	12	
3	0	0	0	0	11	
4	0	0	0	0	12	
5	0	0	0	0	14	
6	0	0	0	0	13	
7	0	0	0	0	11	
8	0	0	0	0	13	
9	0	0	0	0	15	
10	0	0	0	0	13	
11	0	0	0	0	12	
12	0	0	0	0	14	
13	0	0	0	0	15	
14	0	0	0	0	14	
15	0	0	0	0	12	
0	0	0	0	0	13	
1	0	0	0	0	15	
2	0	0	0	0	13	
3	0	0	0	0	12	
4	0	0	0	0	12	
5	0	0	0	0	14	
6	0	0	0	0	12	
7	0	0	0	0	11	
8	0	0	0	0	12	
9	0	0	0	0	13	
10	0	0	0	0	12	
11	0	0	0	0	11	
12	0	0	0	0	12	
13	0	0	0	0	14	
14	0	0	0	0	13	
15	0	0	0	0	11	
0	0	0	0	0	13	
1	0	0	0	0	15	
2	0	0	0	0	13	
3	0	0	0	0	12	
4	0	0	0	0	14	
5	0	0	0	0	15	
6	0	0	0	0	13	
7	0	0	0	0	11	
8	0	0	0	0	13	
9	0	0	0	0	14	
10	0	0	0	0	12	
11	0	0	0	0	11	
12	0	0	0	0	12	
13	0	0	0	0	14	
14	0	0	0	0	12	
15	0	0	0	0	10	
0	0	0	0	0	12	
1	0	0	0	0	14	
2	0	0	0	0	13	
3	0	0	0	0	12	
4	0	0	0	0	15	
5	0	0	0	0	18	
6	0	0	0	0	19	
7	0	0	0	0	21	
8	0	0	0	0	26	
9	0	0	0	0	30	
10	0	0	0	0	31	
11	0	0	0	0	31	
12	0	0	0	0	35	
13	0	0	0	0	37	
14	0	0	0	0	37	
15	0	0	0	0	37	
0	0	0	0	0	38	
1	0	0	0	0	40	
2	0	0	0	0	39	
3	0	0	0	0	38	
4	0	0	0	0	39	
5	0	0	0	0	42	
6	0	0	0	0	42	
7	0	0	0	0	41	
8	0	0	0	0	43	
9	0	0	0	0	44	
10	0	0	0	0	44	
11	0	0	0	0	43	
12	0	0	0	0	44	
13	0	0	0	0	45	
14	0	0	0	0	43	
15	0	0	0	0	42	
0	0	0	0	0	43	
1	0	0	0	0	45	
2	0	0	0	0	44	
3	0	0	0	0	42	
4	0	0	0	0	44	
5	0	0	0	0	45	
6	0	0	0	0	43	
7	0	0	0	0	42	
8	0	0	0	0	43	
9	0	0	0	0	45	
10	0	0	0	0	43	
11	0	0	0	0	42	
12	0	0	0	0	43	
13	0	0	0	0	44	
14	0	0	0	0	43	
15	0	0	0	0	41	
0	0	0	0	0	42	
1	0	0	0	0	44	
2	0	0	0	0	42	
3	0	0	0	0	40	
4	0	0	0	0	41	
5	0	0	0	0	43	
6	0	0	0	0	41	
7	0	0	0	0	40	
8	0	0	0	0	41	
9	0	0	0	0	42	
10	0	0	0	0	41	
11	0	0	0	0	39	
12	0	0	0	0	40	
13	0	0	0	0	42	
14	0	0	0	0	40	
15	0	0	0	0	39	
0	0	0	0	0	40	
1	0	0	0	0	42	
2	0	0	0	0	40	
3	0	0	0	0	39	
4	0	0	0	0	40	
5	0	0	0	0	42	
6	0	0	0	0	40	
7	0	0	0	0	39	
8	0	0	0	0	40	
9	0	0	0	0	42	
10	0	0	0	0	41	
11	0	0	0	0	39	
12	0	0	0	0	41	
13	0	0	0	0	42	
14	0	0	0	0	41	
15	0	0	0	0	40	
0	0	0	0	0	41	
1	0	0	0	0	43	
2	0	0	0	0	41	
3	0	0	0	0	40	
4	0	0	0	0	41	
5	0	0	0	0	43	
6	0	0	0	0	42	
7	0	0	0	0	40	
8	0	0	0	0	41	
9	0	0	0	0	43	
10	0	0	0	0	41	
11	0	0	0	0	39	
12	0	0	0	0	41	
13	0	0	0	0	43	
14	0	0	0	0	41	
15	0	0	0	0	40	
0	0	0	0	0	41	
1	0	0	0	0	43	
2	0	0	0	0	42	
3	0	0	0	0	40	
4	0	0	0	0	41	
5	0	0	0	0	43	
6	0	0	0	0	41	
7	0	0	0	0	40	
8	0	0	0	0	41	
9	0	0	0	0	43	
10	0	0	0	0	42	
11	0	0	0	0	40	
12	0	0	0	0	42	
13	0	0	0	0	43	
14	0	0	0	0	42	
15	0	0	0	0	40	
0	0	0	0	0	42	
1	0	0	0	0	43	
2	0	0	0	0	42	
3	0	0	0	0	41	
4	0	0	0	0	42	
5	0	0	0	0	44	
6	0	0	0	0	42	
7	0	0	0	0	41	
8	0	0	0	0	42	
9	0	0	0	0	44	
10	0	0	0	0	42	
11	0	0	0	0	41	
12	0	0	0	0	42	
13	0	0	0	0	44	
14	0	0	0	0	42	
15	0	0	0	0	41	
0	0	0	0	0	42	
1	0	0	0	0	44	
2	0	0	0	0	42	
3	0	0	0	0	41	
4	0	0	0	0	42	
5	0	0	0	0	44	
6	0	0	0	0	42	
7	0	0	0	0	41	
8	0	0	0	0	43	
9	0	0	0	0	44	
10	0	0	0	0	43	
11	0	0	0	0	41	
12	0	0	0	0	43	
13	0	0	0	0	44	
14	0	0	0	0	42	
15	0	0	0	0	41	
0	0	0	0	0	43	
1	0	0	0	0	44	
2	0	0	0	0	43	
3	0	0	0	0	41	
4	0	0	0	0	42	
5	0	0	0	0	44	
6	0	0	0	0	43	
7	0	0	0	0	41	
8	0	0	0	0	42	
9	0	0	0	0	44	
10	0	0	0	0	42	
11	0	0	0	0	41	
12	0	0	0	0	43	
13	0	0	0	0	44	
14	0	0	0	0	43	
15	0	0	0	0	41	
0	0	0	0	0	42	
1	0	0	0	0	44	
2	0	0	0	0	43	
3	0	0	0	0	41	
4	0	0	0	0	43	
5	0	0	0	0	44	
6	0	0	0	0	43	
7	0	0	0	0	41	
8	0	0	0	0	43	
9	0	0	0	0	44	
10	0	0	0	0	43	
11	0	0	0	0	41	
12	0	0	0	0	43	
13	0	0	0	0	44	
14	0	0	0	0	43	
15	0	0	0	0	41	
0	0	0	0	0	43	
1	0	0	0	0	44	
2	0	0	0	0	43	
3	0	0	0	0	42	
4	0	0	0	0	43	
5	0	0	0	0	44	
6	0	0	0	0	43	
7	0	0	0	0	42	
8	0	0	0	0	44	
9	0	0	0	0	45	
10	0	0	0	0	44	
11	0	0	0	0	43	
12	0	0	0	0	43	
13	0	0	0	0	45	
14	0	0	0	0	43	
15	0	0	0	0	42	
0	0	0	0	0	44	
1	0	0	0	0	45	
2	0	0	0	0	43	
3	0	0	0	0	42	
4	0	0	0	0	44	
