0	0	0	0	0	392	
1	0	0	0	0	595	
2	0	0	0	0	393	
3	0	0	0	0	603	
4	0	0	0	0	397	
5	0	0	0	0	591	
6	0	0	0	0	399	
7	0	0	0	0	592	
8	0	0	0	0	399	
9	0	0	0	0	594	
10	0	0	0	0	397	
11	0	0	0	0	588	
12	0	0	0	0	399	
13	0	0	0	0	601	
14	0	0	0	0	407	
15	0	0	0	0	588	
0	0	0	0	0	411	
1	0	0	0	0	589	
2	0	0	0	0	401	
3	0	0	0	0	604	
4	0	0	0	0	395	
5	0	0	0	0	596	
6	0	0	0	0	402	
7	0	0	0	0	591	
8	0	0	0	0	392	
9	0	0	0	0	584	
10	0	0	0	0	401	
11	0	0	0	0	585	
12	0	0	0	0	407	
13	0	0	0	0	600	
14	0	0	0	0	403	
15	0	0	0	0	590	
0	0	0	0	0	411	
1	0	0	0	0	588	
2	0	0	0	0	406	
3	0	0	0	0	585	
4	0	0	0	0	411	
5	0	0	0	0	587	
6	0	0	0	0	409	
7	0	0	0	0	591	
8	0	0	0	0	408	
9	0	0	0	0	584	
10	0	0	0	0	415	
11	0	0	0	0	583	
12	0	0	0	0	407	
13	0	0	0	0	592	
14	0	0	0	0	407	
15	0	0	0	0	576	
0	0	0	0	0	416	
1	0	0	0	0	588	
2	0	0	0	0	406	
3	0	0	0	0	579	
4	0	0	0	0	417	
5	0	0	0	0	583	
6	0	0	0	0	414	
7	0	0	0	0	587	
8	0	0	0	0	419	
9	0	0	0	0	575	
10	0	0	0	0	408	
11	0	0	0	0	585	
12	0	0	0	0	414	
13	0	0	0	0	580	
14	0	0	0	0	425	
15	0	0	0	0	566	
0	0	0	0	0	419	
1	0	0	0	0	576	
2	0	0	0	0	419	
3	0	0	0	0	575	
4	0	0	0	0	428	
5	0	0	0	0	578	
6	0	0	0	0	419	
7	0	0	0	0	573	
8	0	0	0	0	428	
9	0	0	0	0	570	
10	0	0	0	0	424	
11	0	0	0	0	574	
12	0	0	0	0	428	
13	0	0	0	0	565	
14	0	0	0	0	434	
15	0	0	0	0	570	
0	0	0	0	0	435	
1	0	0	0	0	569	
2	0	0	0	0	431	
3	0	0	0	0	556	
4	0	0	0	0	436	
5	0	0	0	0	573	
6	0	0	0	0	438	
7	0	0	0	0	563	
8	0	0	0	0	436	
9	0	0	0	0	562	
10	0	0	0	0	438	
11	0	0	0	0	569	
12	0	0	0	0	434	
13	0	0	0	0	553	
14	0	0	0	0	439	
15	0	0	0	0	569	
0	0	0	0	0	440	
1	0	0	0	0	562	
2	0	0	0	0	435	
3	0	0	0	0	559	
4	0	0	0	0	444	
5	0	0	0	0	565	
6	0	0	0	0	434	
7	0	0	0	0	555	
8	0	0	0	0	445	
9	0	0	0	0	560	
10	0	0	0	0	440	
11	0	0	0	0	554	
12	0	0	0	0	451	
13	0	0	0	0	550	
14	0	0	0	0	446	
15	0	0	0	0	567	
0	0	0	0	0	435	
1	0	0	0	0	555	
2	0	0	0	0	443	
3	0	0	0	0	555	
4	0	0	0	0	449	
5	0	0	0	0	553	
6	0	0	0	0	454	
7	0	0	0	0	543	
8	0	0	0	0	458	
9	0	0	0	0	565	
10	0	0	0	0	441	
11	0	0	0	0	561	
12	0	0	0	0	453	
13	0	0	0	0	548	
14	0	0	0	0	446	
15	0	0	0	0	550	
0	0	0	0	0	462	
1	0	0	0	0	537	
2	0	0	0	0	464	
3	0	0	0	0	553	
4	0	0	0	0	464	
5	0	0	0	0	549	
6	0	0	0	0	467	
7	0	0	0	0	538	
8	0	0	0	0	456	
9	0	0	0	0	548	
10	0	0	0	0	467	
11	0	0	0	0	537	
12	0	0	0	0	470	
13	0	0	0	0	540	
14	0	0	0	0	481	
15	0	0	0	0	524	
0	0	0	0	0	497	
1	0	0	0	0	511	
2	0	0	0	0	501	
3	0	0	0	0	513	
4	0	0	0	0	501	
5	0	0	0	0	511	
6	0	0	0	0	504	
7	0	0	0	0	512	
8	0	0	0	0	496	
9	0	0	0	0	510	
10	0	0	0	0	511	
11	0	0	0	0	511	
12	0	0	0	0	504	
13	0	0	0	0	510	
14	0	0	0	0	502	
15	0	0	0	0	509	
0	0	0	0	0	507	
1	0	0	0	0	503	
2	0	0	0	0	512	
3	0	0	0	0	506	
4	0	0	0	0	499	
5	0	0	0	0	510	
6	0	0	0	0	501	
7	0	0	0	0	513	
8	0	0	0	0	496	
9	0	0	0	0	510	
10	0	0	0	0	494	
11	0	0	0	0	521	
12	0	0	0	0	492	
13	0	0	0	0	515	
14	0	0	0	0	491	
15	0	0	0	0	522	
0	0	0	0	0	485	
1	0	0	0	0	532	
2	0	0	0	0	492	
3	0	0	0	0	524	
4	0	0	0	0	490	
5	0	0	0	0	518	
6	0	0	0	0	497	
7	0	0	0	0	525	
8	0	0	0	0	484	
9	0	0	0	0	522	
10	0	0	0	0	485	
11	0	0	0	0	525	
12	0	0	0	0	488	
13	0	0	0	0	529	
14	0	0	0	0	472	
15	0	0	0	0	587	
0	0	0	0	0	414	
1	0	0	0	0	567	
2	0	0	0	0	415	
3	0	0	0	0	582	
4	0	0	0	0	421	
5	0	0	0	0	575	
6	0	0	0	0	415	
7	0	0	0	0	599	
8	0	0	0	0	409	
9	0	0	0	0	584	
10	0	0	0	0	415	
11	0	0	0	0	601	
12	0	0	0	0	408	
13	0	0	0	0	602	
14	0	0	0	0	412	
15	0	0	0	0	588	
0	0	0	0	0	419	
1	0	0	0	0	596	
2	0	0	0	0	405	
3	0	0	0	0	584	
4	0	0	0	0	408	
5	0	0	0	0	596	
6	0	0	0	0	399	
7	0	0	0	0	602	
8	0	0	0	0	408	
9	0	0	0	0	588	
10	0	0	0	0	405	
11	0	0	0	0	608	
12	0	0	0	0	393	
13	0	0	0	0	615	
14	0	0	0	0	400	
15	0	0	0	0	593	
0	0	0	0	0	390	
1	0	0	0	0	608	
2	0	0	0	0	393	
3	0	0	0	0	603	
4	0	0	0	0	389	
5	0	0	0	0	623	
6	0	0	0	0	376	
7	0	0	0	0	626	
8	0	0	0	0	377	
9	0	0	0	0	616	
10	0	0	0	0	382	
11	0	0	0	0	631	
12	0	0	0	0	375	
13	0	0	0	0	618	
14	0	0	0	0	376	
15	0	0	0	0	634	
0	0	0	0	0	361	
1	0	0	0	0	651	
2	0	0	0	0	365	
3	0	0	0	0	619	
4	0	0	0	0	358	
5	0	0	0	0	644	
6	0	0	0	0	353	
7	0	0	0	0	652	
8	0	0	0	0	357	
9	0	0	0	0	640	
10	0	0	0	0	353	
11	0	0	0	0	647	
12	0	0	0	0	356	
13	0	0	0	0	630	
14	0	0	0	0	348	
15	0	0	0	0	655	
0	0	0	0	0	344	
1	0	0	0	0	660	
2	0	0	0	0	343	
3	0	0	0	0	636	
4	0	0	0	0	346	
5	0	0	0	0	660	
6	0	0	0	0	343	
7	0	0	0	0	665	
8	0	0	0	0	340	
9	0	0	0	0	659	
10	0	0	0	0	335	
11	0	0	0	0	659	
12	0	0	0	0	338	
13	0	0	0	0	647	
14	0	0	0	0	334	
15	0	0	0	0	669	
0	0	0	0	0	328	
1	0	0	0	0	669	
2	0	0	0	0	336	
3	0	0	0	0	664	
4	0	0	0	0	327	
5	0	0	0	0	673	
6	0	0	0	0	335	
7	0	0	0	0	650	
8	0	0	0	0	331	
9	0	0	0	0	672	
10	0	0	0	0	320	
11	0	0	0	0	679	
12	0	0	0	0	325	
13	0	0	0	0	655	
14	0	0	0	0	336	
15	0	0	0	0	673	
0	0	0	0	0	327	
1	0	0	0	0	675	
2	0	0	0	0	333	
3	0	0	0	0	673	
4	0	0	0	0	326	
5	0	0	0	0	677	
6	0	0	0	0	324	
7	0	0	0	0	659	
8	0	0	0	0	336	
9	0	0	0	0	680	
10	0	0	0	0	326	
11	0	0	0	0	679	
12	0	0	0	0	332	
13	0	0	0	0	664	
14	0	0	0	0	337	
15	0	0	0	0	675	
0	0	0	0	0	334	
1	0	0	0	0	663	
2	0	0	0	0	329	
3	0	0	0	0	678	
4	0	0	0	0	324	
5	0	0	0	0	670	
6	0	0	0	0	337	
7	0	0	0	0	666	
8	0	0	0	0	335	
9	0	0	0	0	671	
10	0	0	0	0	328	
11	0	0	0	0	664	
12	0	0	0	0	329	
13	0	0	0	0	674	
14	0	0	0	0	337	
15	0	0	0	0	673	
0	0	0	0	0	332	
1	0	0	0	0	655	
2	0	0	0	0	330	
3	0	0	0	0	671	
4	0	0	0	0	337	
5	0	0	0	0	665	
6	0	0	0	0	335	
7	0	0	0	0	673	
8	0	0	0	0	332	
9	0	0	0	0	676	
10	0	0	0	0	340	
11	0	0	0	0	667	
12	0	0	0	0	331	
13	0	0	0	0	672	
14	0	0	0	0	324	
15	0	0	0	0	666	
0	0	0	0	0	336	
1	0	0	0	0	668	
2	0	0	0	0	338	
3	0	0	0	0	679	
4	0	0	0	0	333	
5	0	0	0	0	667	
6	0	0	0	0	333	
7	0	0	0	0	669	
8	0	0	0	0	336	
9	0	0	0	0	666	
10	0	0	0	0	327	
11	0	0	0	0	655	
12	0	0	0	0	339	
13	0	0	0	0	667	
14	0	0	0	0	338	
15	0	0	0	0	667	
0	0	0	0	0	337	
1	0	0	0	0	652	
2	0	0	0	0	343	
3	0	0	0	0	668	
4	0	0	0	0	340	
5	0	0	0	0	669	
6	0	0	0	0	335	
7	0	0	0	0	668	
8	0	0	0	0	332	
9	0	0	0	0	665	
10	0	0	0	0	337	
11	0	0	0	0	659	
12	0	0	0	0	333	
13	0	0	0	0	662	
14	0	0	0	0	337	
15	0	0	0	0	665	
0	0	0	0	0	339	
1	0	0	0	0	662	
2	0	0	0	0	344	
3	0	0	0	0	668	
4	0	0	0	0	332	
5	0	0	0	0	662	
6	0	0	0	0	329	
7	0	0	0	0	659	
8	0	0	0	0	339	
9	0	0	0	0	660	
10	0	0	0	0	337	
11	0	0	0	0	666	
12	0	0	0	0	339	
13	0	0	0	0	662	
14	0	0	0	0	337	
15	0	0	0	0	660	
0	0	0	0	0	335	
1	0	0	0	0	660	
2	0	0	0	0	335	
3	0	0	0	0	668	
4	0	0	0	0	339	
5	0	0	0	0	657	
6	0	0	0	0	351	
7	0	0	0	0	655	
8	0	0	0	0	341	
9	0	0	0	0	663	
10	0	0	0	0	343	
11	0	0	0	0	659	
12	0	0	0	0	338	
13	0	0	0	0	655	
14	0	0	0	0	340	
15	0	0	0	0	662	
0	0	0	0	0	337	
1	0	0	0	0	653	
2	0	0	0	0	348	
3	0	0	0	0	654	
4	0	0	0	0	343	
5	0	0	0	0	652	
6	0	0	0	0	345	
7	0	0	0	0	649	
8	0	0	0	0	347	
9	0	0	0	0	655	
10	0	0	0	0	343	
11	0	0	0	0	661	
12	0	0	0	0	342	
13	0	0	0	0	651	
14	0	0	0	0	344	
15	0	0	0	0	652	
0	0	0	0	0	354	
1	0	0	0	0	652	
2	0	0	0	0	348	
3	0	0	0	0	650	
4	0	0	0	0	346	
5	0	0	0	0	653	
6	0	0	0	0	359	
7	0	0	0	0	647	
8	0	0	0	0	347	
9	0	0	0	0	652	
10	0	0	0	0	343	
11	0	0	0	0	652	
12	0	0	0	0	350	
13	0	0	0	0	640	
14	0	0	0	0	344	
15	0	0	0	0	648	
0	0	0	0	0	356	
1	0	0	0	0	654	
2	0	0	0	0	353	
3	0	0	0	0	656	
4	0	0	0	0	352	
5	0	0	0	0	649	
6	0	0	0	0	347	
7	0	0	0	0	647	
8	0	0	0	0	349	
9	0	0	0	0	654	
10	0	0	0	0	357	
11	0	0	0	0	651	
12	0	0	0	0	349	
13	0	0	0	0	659	
14	0	0	0	0	358	
15	0	0	0	0	652	
0	0	0	0	0	355	
1	0	0	0	0	648	
2	0	0	0	0	348	
3	0	0	0	0	647	
4	0	0	0	0	356	
5	0	0	0	0	645	
6	0	0	0	0	347	
7	0	0	0	0	654	
8	0	0	0	0	354	
9	0	0	0	0	653	
10	0	0	0	0	351	
11	0	0	0	0	648	
12	0	0	0	0	348	
13	0	0	0	0	654	
14	0	0	0	0	346	
15	0	0	0	0	645	
0	0	0	0	0	361	
1	0	0	0	0	648	
2	0	0	0	0	352	
3	0	0	0	0	644	
4	0	0	0	0	360	
5	0	0	0	0	648	
6	0	0	0	0	341	
7	0	0	0	0	648	
8	0	0	0	0	349	
9	0	0	0	0	646	
10	0	0	0	0	357	
11	0	0	0	0	650	
12	0	0	0	0	351	
13	0	0	0	0	654	
14	0	0	0	0	355	
15	0	0	0	0	646	
0	0	0	0	0	350	
1	0	0	0	0	647	
2	0	0	0	0	348	
3	0	0	0	0	644	
4	0	0	0	0	359	
5	0	0	0	0	645	
6	0	0	0	0	359	
7	0	0	0	0	641	
8	0	0	0	0	353	
9	0	0	0	0	646	
10	0	0	0	0	358	
11	0	0	0	0	652	
12	0	0	0	0	348	
13	0	0	0	0	649	
14	0	0	0	0	356	
15	0	0	0	0	646	
0	0	0	0	0	357	
1	0	0	0	0	643	
2	0	0	0	0	354	
3	0	0	0	0	648	
4	0	0	0	0	362	
5	0	0	0	0	639	
6	0	0	0	0	353	
7	0	0	0	0	642	
8	0	0	0	0	351	
9	0	0	0	0	653	
10	0	0	0	0	356	
11	0	0	0	0	646	
12	0	0	0	0	348	
13	0	0	0	0	647	
14	0	0	0	0	362	
15	0	0	0	0	646	
0	0	0	0	0	348	
1	0	0	0	0	647	
2	0	0	0	0	363	
3	0	0	0	0	634	
4	0	0	0	0	356	
5	0	0	0	0	640	
6	0	0	0	0	356	
7	0	0	0	0	638	
8	0	0	0	0	356	
9	0	0	0	0	643	
10	0	0	0	0	359	
11	0	0	0	0	643	
12	0	0	0	0	356	
13	0	0	0	0	645	
14	0	0	0	0	357	
15	0	0	0	0	646	
0	0	0	0	0	352	
1	0	0	0	0	644	
2	0	0	0	0	359	
3	0	0	0	0	645	
4	0	0	0	0	355	
5	0	0	0	0	642	
6	0	0	0	0	354	
7	0	0	0	0	643	
8	0	0	0	0	358	
9	0	0	0	0	643	
10	0	0	0	0	356	
11	0	0	0	0	637	
12	0	0	0	0	351	
13	0	0	0	0	649	
14	0	0	0	0	357	
15	0	0	0	0	647	
0	0	0	0	0	360	
1	0	0	0	0	642	
2	0	0	0	0	353	
3	0	0	0	0	647	
4	0	0	0	0	359	
5	0	0	0	0	652	
6	0	0	0	0	356	
7	0	0	0	0	642	
8	0	0	0	0	353	
9	0	0	0	0	646	
10	0	0	0	0	348	
11	0	0	0	0	653	
12	0	0	0	0	356	
13	0	0	0	0	638	
14	0	0	0	0	354	
15	0	0	0	0	641	
0	0	0	0	0	353	
1	0	0	0	0	634	
2	0	0	0	0	363	
3	0	0	0	0	644	
4	0	0	0	0	355	
5	0	0	0	0	652	
6	0	0	0	0	357	
7	0	0	0	0	642	
8	0	0	0	0	359	
9	0	0	0	0	652	
10	0	0	0	0	356	
11	0	0	0	0	645	
12	0	0	0	0	358	
13	0	0	0	0	648	
14	0	0	0	0	358	
15	0	0	0	0	649	
0	0	0	0	0	355	
1	0	0	0	0	643	
2	0	0	0	0	364	
3	0	0	0	0	645	
4	0	0	0	0	348	
5	0	0	0	0	643	
6	0	0	0	0	358	
7	0	0	0	0	647	
8	0	0	0	0	362	
9	0	0	0	0	649	
10	0	0	0	0	360	
11	0	0	0	0	648	
12	0	0	0	0	359	
13	0	0	0	0	642	
14	0	0	0	0	359	
15	0	0	0	0	645	
0	0	0	0	0	353	
1	0	0	0	0	643	
2	0	0	0	0	359	
3	0	0	0	0	641	
4	0	0	0	0	350	
5	0	0	0	0	649	
6	0	0	0	0	356	
7	0	0	0	0	646	
8	0	0	0	0	349	
9	0	0	0	0	647	
10	0	0	0	0	361	
11	0	0	0	0	650	
12	0	0	0	0	353	
13	0	0	0	0	637	
14	0	0	0	0	354	
15	0	0	0	0	645	
0	0	0	0	0	355	
1	0	0	0	0	640	
2	0	0	0	0	355	
3	0	0	0	0	647	
4	0	0	0	0	348	
5	0	0	0	0	652	
6	0	0	0	0	358	
7	0	0	0	0	649	
8	0	0	0	0	348	
9	0	0	0	0	655	
10	0	0	0	0	353	
11	0	0	0	0	654	
12	0	0	0	0	344	
13	0	0	0	0	649	
14	0	0	0	0	349	
15	0	0	0	0	648	
0	0	0	0	0	358	
1	0	0	0	0	642	
2	0	0	0	0	353	
3	0	0	0	0	658	
4	0	0	0	0	347	
5	0	0	0	0	655	
6	0	0	0	0	349	
7	0	0	0	0	652	
8	0	0	0	0	351	
9	0	0	0	0	652	
10	0	0	0	0	351	
11	0	0	0	0	656	
12	0	0	0	0	351	
13	0	0	0	0	648	
14	0	0	0	0	344	
15	0	0	0	0	652	
0	0	0	0	0	355	
1	0	0	0	0	648	
2	0	0	0	0	344	
3	0	0	0	0	650	
4	0	0	0	0	347	
5	0	0	0	0	648	
6	0	0	0	0	348	
7	0	0	0	0	650	
8	0	0	0	0	347	
9	0	0	0	0	651	
10	0	0	0	0	351	
11	0	0	0	0	649	
12	0	0	0	0	348	
13	0	0	0	0	650	
14	0	0	0	0	347	
15	0	0	0	0	651	
0	0	0	0	0	349	
1	0	0	0	0	649	
2	0	0	0	0	344	
3	0	0	0	0	650	
4	0	0	0	0	347	
5	0	0	0	0	647	
6	0	0	0	0	347	
7	0	0	0	0	650	
8	0	0	0	0	343	
9	0	0	0	0	652	
10	0	0	0	0	352	
11	0	0	0	0	654	
12	0	0	0	0	348	
13	0	0	0	0	652	
14	0	0	0	0	349	
15	0	0	0	0	646	
0	0	0	0	0	352	
1	0	0	0	0	649	
2	0	0	0	0	352	
3	0	0	0	0	644	
4	0	0	0	0	349	
5	0	0	0	0	643	
6	0	0	0	0	349	
7	0	0	0	0	657	
8	0	0	0	0	348	
9	0	0	0	0	655	
10	0	0	0	0	350	
11	0	0	0	0	648	
12	0	0	0	0	348	
13	0	0	0	0	648	
14	0	0	0	0	350	
15	0	0	0	0	654	
0	0	0	0	0	348	
1	0	0	0	0	658	
2	0	0	0	0	353	
3	0	0	0	0	651	
4	0	0	0	0	350	
5	0	0	0	0	654	
6	0	0	0	0	354	
7	0	0	0	0	648	
8	0	0	0	0	347	
9	0	0	0	0	648	
10	0	0	0	0	342	
11	0	0	0	0	655	
12	0	0	0	0	340	
13	0	0	0	0	649	
14	0	0	0	0	350	
15	0	0	0	0	648	
0	0	0	0	0	348	
1	0	0	0	0	655	
2	0	0	0	0	351	
3	0	0	0	0	648	
4	0	0	0	0	348	
5	0	0	0	0	650	
6	0	0	0	0	351	
7	0	0	0	0	652	
8	0	0	0	0	347	
9	0	0	0	0	653	
10	0	0	0	0	346	
11	0	0	0	0	663	
12	0	0	0	0	348	
13	0	0	0	0	656	
14	0	0	0	0	354	
15	0	0	0	0	651	
0	0	0	0	0	346	
1	0	0	0	0	656	
2	0	0	0	0	353	
3	0	0	0	0	654	
4	0	0	0	0	344	
5	0	0	0	0	650	
6	0	0	0	0	348	
7	0	0	0	0	650	
8	0	0	0	0	347	
9	0	0	0	0	653	
10	0	0	0	0	353	
11	0	0	0	0	645	
12	0	0	0	0	343	
13	0	0	0	0	647	
14	0	0	0	0	347	
15	0	0	0	0	647	
0	0	0	0	0	350	
1	0	0	0	0	658	
2	0	0	0	0	343	
3	0	0	0	0	657	
4	0	0	0	0	350	
5	0	0	0	0	654	
6	0	0	0	0	352	
7	0	0	0	0	655	
8	0	0	0	0	348	
9	0	0	0	0	654	
10	0	0	0	0	359	
11	0	0	0	0	654	
12	0	0	0	0	344	
13	0	0	0	0	645	
14	0	0	0	0	352	
15	0	0	0	0	648	
0	0	0	0	0	348	
1	0	0	0	0	652	
2	0	0	0	0	351	
3	0	0	0	0	660	
4	0	0	0	0	352	
5	0	0	0	0	647	
6	0	0	0	0	352	
7	0	0	0	0	647	
8	0	0	0	0	350	
9	0	0	0	0	649	
10	0	0	0	0	350	
11	0	0	0	0	652	
12	0	0	0	0	351	
13	0	0	0	0	645	
14	0	0	0	0	356	
15	0	0	0	0	650	
0	0	0	0	0	348	
1	0	0	0	0	648	
2	0	0	0	0	353	
3	0	0	0	0	641	
4	0	0	0	0	349	
5	0	0	0	0	649	
6	0	0	0	0	353	
7	0	0	0	0	654	
8	0	0	0	0	353	
9	0	0	0	0	652	
10	0	0	0	0	350	
11	0	0	0	0	644	
12	0	0	0	0	359	
13	0	0	0	0	650	
14	0	0	0	0	354	
15	0	0	0	0	655	
0	0	0	0	0	354	
1	0	0	0	0	648	
2	0	0	0	0	352	
3	0	0	0	0	647	
4	0	0	0	0	348	
5	0	0	0	0	649	
6	0	0	0	0	346	
7	0	0	0	0	642	
8	0	0	0	0	352	
9	0	0	0	0	645	
10	0	0	0	0	353	
11	0	0	0	0	652	
12	0	0	0	0	356	
13	0	0	0	0	648	
14	0	0	0	0	357	
15	0	0	0	0	648	
0	0	0	0	0	353	
1	0	0	0	0	653	
2	0	0	0	0	355	
3	0	0	0	0	646	
4	0	0	0	0	350	
5	0	0	0	0	646	
6	0	0	0	0	354	
7	0	0	0	0	649	
8	0	0	0	0	358	
9	0	0	0	0	647	
10	0	0	0	0	353	
11	0	0	0	0	643	
12	0	0	0	0	352	
13	0	0	0	0	644	
14	0	0	0	0	350	
15	0	0	0	0	647	
0	0	0	0	0	347	
1	0	0	0	0	642	
2	0	0	0	0	352	
3	0	0	0	0	643	
4	0	0	0	0	352	
5	0	0	0	0	647	
6	0	0	0	0	352	
7	0	0	0	0	647	
8	0	0	0	0	359	
9	0	0	0	0	646	
10	0	0	0	0	355	
11	0	0	0	0	648	
12	0	0	0	0	357	
13	0	0	0	0	642	
14	0	0	0	0	354	
15	0	0	0	0	644	
0	0	0	0	0	354	
1	0	0	0	0	647	
2	0	0	0	0	355	
3	0	0	0	0	646	
4	0	0	0	0	355	
5	0	0	0	0	649	
6	0	0	0	0	356	
7	0	0	0	0	643	
8	0	0	0	0	354	
9	0	0	0	0	642	
10	0	0	0	0	358	
11	0	0	0	0	636	
12	0	0	0	0	357	
13	0	0	0	0	634	
14	0	0	0	0	360	
15	0	0	0	0	638	
0	0	0	0	0	367	
1	0	0	0	0	639	
2	0	0	0	0	360	
3	0	0	0	0	647	
4	0	0	0	0	358	
5	0	0	0	0	649	
6	0	0	0	0	359	
7	0	0	0	0	642	
8	0	0	0	0	356	
9	0	0	0	0	643	
10	0	0	0	0	365	
11	0	0	0	0	647	
12	0	0	0	0	358	
13	0	0	0	0	633	
14	0	0	0	0	367	
15	0	0	0	0	646	
0	0	0	0	0	352	
1	0	0	0	0	644	
2	0	0	0	0	356	
3	0	0	0	0	647	
4	0	0	0	0	366	
5	0	0	0	0	639	
6	0	0	0	0	364	
7	0	0	0	0	646	
8	0	0	0	0	366	
9	0	0	0	0	639	
10	0	0	0	0	356	
11	0	0	0	0	643	
12	0	0	0	0	360	
13	0	0	0	0	640	
14	0	0	0	0	352	
15	0	0	0	0	639	
0	0	0	0	0	361	
1	0	0	0	0	643	
2	0	0	0	0	364	
3	0	0	0	0	646	
4	0	0	0	0	364	
5	0	0	0	0	635	
6	0	0	0	0	367	
7	0	0	0	0	652	
8	0	0	0	0	366	
9	0	0	0	0	640	
10	0	0	0	0	359	
11	0	0	0	0	641	
12	0	0	0	0	368	
13	0	0	0	0	641	
14	0	0	0	0	359	
15	0	0	0	0	642	
0	0	0	0	0	358	
1	0	0	0	0	643	
2	0	0	0	0	359	
3	0	0	0	0	641	
4	0	0	0	0	359	
5	0	0	0	0	640	
6	0	0	0	0	366	
7	0	0	0	0	648	
8	0	0	0	0	366	
9	0	0	0	0	638	
10	0	0	0	0	360	
11	0	0	0	0	641	
12	0	0	0	0	357	
13	0	0	0	0	639	
14	0	0	0	0	361	
15	0	0	0	0	651	
0	0	0	0	0	358	
1	0	0	0	0	635	
2	0	0	0	0	360	
3	0	0	0	0	640	
4	0	0	0	0	361	
5	0	0	0	0	645	
6	0	0	0	0	362	
7	0	0	0	0	635	
8	0	0	0	0	360	
9	0	0	0	0	643	
10	0	0	0	0	365	
11	0	0	0	0	645	
12	0	0	0	0	354	
13	0	0	0	0	640	
14	0	0	0	0	361	
15	0	0	0	0	641	
0	0	0	0	0	363	
1	0	0	0	0	645	
2	0	0	0	0	356	
3	0	0	0	0	649	
4	0	0	0	0	365	
5	0	0	0	0	638	
6	0	0	0	0	362	
7	0	0	0	0	641	
8	0	0	0	0	365	
9	0	0	0	0	643	
10	0	0	0	0	365	
11	0	0	0	0	638	
12	0	0	0	0	361	
13	0	0	0	0	638	
14	0	0	0	0	365	
15	0	0	0	0	639	
0	0	0	0	0	356	
1	0	0	0	0	636	
2	0	0	0	0	363	
3	0	0	0	0	639	
4	0	0	0	0	359	
5	0	0	0	0	636	
6	0	0	0	0	367	
7	0	0	0	0	643	
8	0	0	0	0	362	
9	0	0	0	0	632	
10	0	0	0	0	364	
11	0	0	0	0	645	
12	0	0	0	0	365	
13	0	0	0	0	641	
14	0	0	0	0	364	
15	0	0	0	0	640	
0	0	0	0	0	363	
1	0	0	0	0	636	
2	0	0	0	0	364	
3	0	0	0	0	642	
4	0	0	0	0	364	
5	0	0	0	0	642	
6	0	0	0	0	367	
7	0	0	0	0	635	
8	0	0	0	0	364	
9	0	0	0	0	642	
10	0	0	0	0	365	
11	0	0	0	0	648	
12	0	0	0	0	366	
13	0	0	0	0	636	
14	0	0	0	0	363	
15	0	0	0	0	639	
0	0	0	0	0	362	
1	0	0	0	0	636	
2	0	0	0	0	370	
3	0	0	0	0	643	
4	0	0	0	0	359	
5	0	0	0	0	636	
6	0	0	0	0	371	
7	0	0	0	0	636	
8	0	0	0	0	366	
9	0	0	0	0	639	
10	0	0	0	0	364	
11	0	0	0	0	639	
12	0	0	0	0	362	
13	0	0	0	0	643	
14	0	0	0	0	365	
15	0	0	0	0	634	
0	0	0	0	0	360	
1	0	0	0	0	641	
2	0	0	0	0	365	
3	0	0	0	0	637	
4	0	0	0	0	352	
5	0	0	0	0	633	
6	0	0	0	0	366	
7	0	0	0	0	635	
8	0	0	0	0	368	
9	0	0	0	0	634	
10	0	0	0	0	365	
11	0	0	0	0	640	
12	0	0	0	0	354	
13	0	0	0	0	642	
14	0	0	0	0	366	
15	0	0	0	0	646	
0	0	0	0	0	361	
1	0	0	0	0	634	
2	0	0	0	0	365	
3	0	0	0	0	638	
4	0	0	0	0	363	
5	0	0	0	0	632	
6	0	0	0	0	367	
7	0	0	0	0	641	
8	0	0	0	0	356	
9	0	0	0	0	643	
10	0	0	0	0	359	
11	0	0	0	0	634	
12	0	0	0	0	368	
13	0	0	0	0	630	
14	0	0	0	0	360	
15	0	0	0	0	640	
0	0	0	0	0	359	
1	0	0	0	0	639	
2	0	0	0	0	367	
3	0	0	0	0	645	
4	0	0	0	0	363	
5	0	0	0	0	635	
6	0	0	0	0	363	
7	0	0	0	0	643	
8	0	0	0	0	359	
9	0	0	0	0	634	
10	0	0	0	0	368	
11	0	0	0	0	637	
12	0	0	0	0	360	
13	0	0	0	0	639	
14	0	0	0	0	370	
15	0	0	0	0	635	
0	0	0	0	0	368	
1	0	0	0	0	636	
2	0	0	0	0	359	
3	0	0	0	0	638	
4	0	0	0	0	360	
5	0	0	0	0	635	
6	0	0	0	0	363	
7	0	0	0	0	643	
8	0	0	0	0	362	
9	0	0	0	0	633	
10	0	0	0	0	365	
11	0	0	0	0	634	
12	0	0	0	0	363	
13	0	0	0	0	639	
14	0	0	0	0	367	
15	0	0	0	0	643	
0	0	0	0	0	364	
1	0	0	0	0	638	
2	0	0	0	0	369	
3	0	0	0	0	640	
4	0	0	0	0	362	
5	0	0	0	0	633	
6	0	0	0	0	364	
7	0	0	0	0	633	
8	0	0	0	0	361	
9	0	0	0	0	645	
10	0	0	0	0	367	
11	0	0	0	0	637	
12	0	0	0	0	365	
13	0	0	0	0	644	
14	0	0	0	0	367	
15	0	0	0	0	638	
0	0	0	0	0	369	
1	0	0	0	0	640	
2	0	0	0	0	363	
3	0	0	0	0	633	
4	0	0	0	0	365	
5	0	0	0	0	640	
6	0	0	0	0	360	
7	0	0	0	0	638	
8	0	0	0	0	364	
9	0	0	0	0	640	
10	0	0	0	0	368	
11	0	0	0	0	636	
12	0	0	0	0	363	
13	0	0	0	0	645	
14	0	0	0	0	364	
15	0	0	0	0	638	
0	0	0	0	0	368	
1	0	0	0	0	646	
2	0	0	0	0	369	
3	0	0	0	0	631	
4	0	0	0	0	360	
5	0	0	0	0	642	
6	0	0	0	0	369	
7	0	0	0	0	640	
8	0	0	0	0	362	
9	0	0	0	0	630	
10	0	0	0	0	360	
11	0	0	0	0	636	
12	0	0	0	0	366	
13	0	0	0	0	635	
14	0	0	0	0	361	
15	0	0	0	0	640	
0	0	0	0	0	362	
1	0	0	0	0	631	
2	0	0	0	0	364	
3	0	0	0	0	633	
4	0	0	0	0	364	
5	0	0	0	0	634	
6	0	0	0	0	364	
7	0	0	0	0	637	
8	0	0	0	0	366	
9	0	0	0	0	636	
10	0	0	0	0	374	
11	0	0	0	0	640	
12	0	0	0	0	368	
13	0	0	0	0	637	
14	0	0	0	0	368	
15	0	0	0	0	636	
0	0	0	0	0	357	
1	0	0	0	0	636	
2	0	0	0	0	367	
3	0	0	0	0	638	
4	0	0	0	0	367	
5	0	0	0	0	642	
6	0	0	0	0	366	
7	0	0	0	0	635	
8	0	0	0	0	368	
9	0	0	0	0	630	
10	0	0	0	0	367	
11	0	0	0	0	638	
12	0	0	0	0	366	
13	0	0	0	0	638	
14	0	0	0	0	363	
15	0	0	0	0	634	
0	0	0	0	0	371	
1	0	0	0	0	639	
2	0	0	0	0	372	
3	0	0	0	0	642	
4	0	0	0	0	372	
5	0	0	0	0	639	
6	0	0	0	0	366	
7	0	0	0	0	638	
8	0	0	0	0	371	
9	0	0	0	0	637	
10	0	0	0	0	370	
11	0	0	0	0	639	
12	0	0	0	0	367	
13	0	0	0	0	636	
14	0	0	0	0	367	
15	0	0	0	0	638	
0	0	0	0	0	368	
1	0	0	0	0	643	
2	0	0	0	0	367	
3	0	0	0	0	638	
4	0	0	0	0	371	
5	0	0	0	0	637	
6	0	0	0	0	369	
7	0	0	0	0	632	
8	0	0	0	0	368	
9	0	0	0	0	638	
10	0	0	0	0	367	
11	0	0	0	0	639	
12	0	0	0	0	372	
13	0	0	0	0	643	
14	0	0	0	0	376	
15	0	0	0	0	638	
0	0	0	0	0	363	
1	0	0	0	0	640	
2	0	0	0	0	369	
3	0	0	0	0	632	
4	0	0	0	0	369	
5	0	0	0	0	641	
6	0	0	0	0	371	
7	0	0	0	0	642	
8	0	0	0	0	375	
9	0	0	0	0	631	
10	0	0	0	0	369	
11	0	0	0	0	635	
12	0	0	0	0	371	
13	0	0	0	0	639	
14	0	0	0	0	379	
15	0	0	0	0	632	
0	0	0	0	0	364	
1	0	0	0	0	636	
2	0	0	0	0	372	
3	0	0	0	0	640	
4	0	0	0	0	364	
5	0	0	0	0	639	
6	0	0	0	0	366	
7	0	0	0	0	641	
8	0	0	0	0	369	
9	0	0	0	0	646	
10	0	0	0	0	377	
11	0	0	0	0	637	
12	0	0	0	0	374	
13	0	0	0	0	634	
14	0	0	0	0	375	
15	0	0	0	0	635	
0	0	0	0	0	371	
1	0	0	0	0	632	
2	0	0	0	0	371	
3	0	0	0	0	634	
4	0	0	0	0	364	
5	0	0	0	0	635	
6	0	0	0	0	371	
7	0	0	0	0	638	
8	0	0	0	0	382	
9	0	0	0	0	630	
10	0	0	0	0	374	
11	0	0	0	0	634	
12	0	0	0	0	371	
13	0	0	0	0	640	
14	0	0	0	0	377	
15	0	0	0	0	636	
0	0	0	0	0	371	
1	0	0	0	0	632	
2	0	0	0	0	373	
3	0	0	0	0	635	
4	0	0	0	0	374	
5	0	0	0	0	635	
6	0	0	0	0	372	
7	0	0	0	0	635	
8	0	0	0	0	378	
9	0	0	0	0	635	
10	0	0	0	0	370	
11	0	0	0	0	633	
12	0	0	0	0	377	
13	0	0	0	0	634	
14	0	0	0	0	375	
15	0	0	0	0	628	
0	0	0	0	0	374	
1	0	0	0	0	626	
2	0	0	0	0	372	
3	0	0	0	0	639	
4	0	0	0	0	378	
5	0	0	0	0	635	
6	0	0	0	0	374	
7	0	0	0	0	631	
8	0	0	0	0	373	
9	0	0	0	0	630	
10	0	0	0	0	381	
11	0	0	0	0	633	
12	0	0	0	0	380	
13	0	0	0	0	636	
14	0	0	0	0	374	
15	0	0	0	0	629	
0	0	0	0	0	384	
1	0	0	0	0	638	
2	0	0	0	0	375	
3	0	0	0	0	627	
4	0	0	0	0	373	
5	0	0	0	0	631	
6	0	0	0	0	376	
7	0	0	0	0	636	
8	0	0	0	0	379	
9	0	0	0	0	631	
10	0	0	0	0	376	
11	0	0	0	0	629	
12	0	0	0	0	376	
13	0	0	0	0	628	
14	0	0	0	0	379	
15	0	0	0	0	632	
0	0	0	0	0	374	
1	0	0	0	0	631	
2	0	0	0	0	382	
3	0	0	0	0	629	
4	0	0	0	0	373	
5	0	0	0	0	633	
6	0	0	0	0	382	
7	0	0	0	0	633	
8	0	0	0	0	376	
9	0	0	0	0	636	
10	0	0	0	0	373	
11	0	0	0	0	630	
12	0	0	0	0	375	
13	0	0	0	0	633	
14	0	0	0	0	371	
15	0	0	0	0	628	
0	0	0	0	0	377	
1	0	0	0	0	637	
2	0	0	0	0	382	
3	0	0	0	0	637	
4	0	0	0	0	380	
5	0	0	0	0	628	
6	0	0	0	0	383	
7	0	0	0	0	635	
8	0	0	0	0	376	
9	0	0	0	0	634	
10	0	0	0	0	387	
11	0	0	0	0	627	
12	0	0	0	0	375	
13	0	0	0	0	629	
14	0	0	0	0	381	
15	0	0	0	0	626	
0	0	0	0	0	381	
1	0	0	0	0	630	
2	0	0	0	0	379	
3	0	0	0	0	625	
4	0	0	0	0	379	
5	0	0	0	0	633	
6	0	0	0	0	376	
7	0	0	0	0	631	
8	0	0	0	0	380	
9	0	0	0	0	628	
10	0	0	0	0	383	
11	0	0	0	0	638	
12	0	0	0	0	377	
13	0	0	0	0	628	
14	0	0	0	0	383	
15	0	0	0	0	636	
0	0	0	0	0	373	
1	0	0	0	0	630	
2	0	0	0	0	376	
3	0	0	0	0	633	
4	0	0	0	0	384	
5	0	0	0	0	624	
6	0	0	0	0	378	
7	0	0	0	0	628	
8	0	0	0	0	380	
9	0	0	0	0	625	
10	0	0	0	0	387	
11	0	0	0	0	631	
12	0	0	0	0	380	
13	0	0	0	0	636	
14	0	0	0	0	380	
15	0	0	0	0	620	
0	0	0	0	0	379	
1	0	0	0	0	633	
2	0	0	0	0	384	
3	0	0	0	0	629	
4	0	0	0	0	387	
5	0	0	0	0	628	
6	0	0	0	0	384	
7	0	0	0	0	631	
8	0	0	0	0	377	
9	0	0	0	0	631	
10	0	0	0	0	385	
11	0	0	0	0	630	
12	0	0	0	0	376	
13	0	0	0	0	631	
14	0	0	0	0	385	
15	0	0	0	0	632	
0	0	0	0	0	378	
1	0	0	0	0	632	
2	0	0	0	0	377	
3	0	0	0	0	630	
4	0	0	0	0	384	
5	0	0	0	0	620	
6	0	0	0	0	383	
7	0	0	0	0	635	
8	0	0	0	0	383	
9	0	0	0	0	625	
10	0	0	0	0	383	
11	0	0	0	0	626	
12	0	0	0	0	376	
13	0	0	0	0	627	
14	0	0	0	0	388	
15	0	0	0	0	623	
0	0	0	0	0	381	
1	0	0	0	0	625	
2	0	0	0	0	382	
3	0	0	0	0	632	
4	0	0	0	0	379	
5	0	0	0	0	624	
6	0	0	0	0	378	
7	0	0	0	0	629	
8	0	0	0	0	378	
9	0	0	0	0	630	
10	0	0	0	0	379	
11	0	0	0	0	626	
12	0	0	0	0	378	
13	0	0	0	0	624	
14	0	0	0	0	378	
15	0	0	0	0	623	
0	0	0	0	0	380	
1	0	0	0	0	630	
2	0	0	0	0	382	
3	0	0	0	0	631	
4	0	0	0	0	379	
5	0	0	0	0	626	
6	0	0	0	0	381	
7	0	0	0	0	635	
8	0	0	0	0	387	
9	0	0	0	0	625	
10	0	0	0	0	384	
11	0	0	0	0	632	
12	0	0	0	0	379	
13	0	0	0	0	629	
14	0	0	0	0	378	
15	0	0	0	0	629	
0	0	0	0	0	382	
1	0	0	0	0	627	
2	0	0	0	0	380	
3	0	0	0	0	619	
4	0	0	0	0	390	
5	0	0	0	0	628	
6	0	0	0	0	381	
7	0	0	0	0	633	
8	0	0	0	0	379	
9	0	0	0	0	628	
10	0	0	0	0	385	
11	0	0	0	0	625	
12	0	0	0	0	379	
13	0	0	0	0	633	
14	0	0	0	0	379	
15	0	0	0	0	627	
0	0	0	0	0	373	
1	0	0	0	0	630	
2	0	0	0	0	382	
3	0	0	0	0	627	
4	0	0	0	0	380	
5	0	0	0	0	626	
6	0	0	0	0	381	
7	0	0	0	0	631	
8	0	0	0	0	384	
9	0	0	0	0	628	
10	0	0	0	0	385	
11	0	0	0	0	632	
12	0	0	0	0	375	
13	0	0	0	0	634	
14	0	0	0	0	369	
15	0	0	0	0	630	
0	0	0	0	0	383	
1	0	0	0	0	624	
2	0	0	0	0	386	
3	0	0	0	0	627	
4	0	0	0	0	389	
5	0	0	0	0	636	
6	0	0	0	0	381	
7	0	0	0	0	624	
8	0	0	0	0	379	
9	0	0	0	0	629	
10	0	0	0	0	381	
11	0	0	0	0	624	
12	0	0	0	0	380	
13	0	0	0	0	625	
14	0	0	0	0	385	
15	0	0	0	0	627	
0	0	0	0	0	387	
1	0	0	0	0	627	
2	0	0	0	0	385	
3	0	0	0	0	632	
4	0	0	0	0	383	
5	0	0	0	0	635	
6	0	0	0	0	380	
7	0	0	0	0	627	
8	0	0	0	0	375	
9	0	0	0	0	630	
10	0	0	0	0	384	
11	0	0	0	0	626	
12	0	0	0	0	371	
13	0	0	0	0	633	
14	0	0	0	0	375	
15	0	0	0	0	631	
0	0	0	0	0	379	
1	0	0	0	0	632	
2	0	0	0	0	380	
3	0	0	0	0	633	
4	0	0	0	0	379	
5	0	0	0	0	628	
6	0	0	0	0	377	
7	0	0	0	0	634	
8	0	0	0	0	376	
9	0	0	0	0	635	
10	0	0	0	0	379	
11	0	0	0	0	639	
12	0	0	0	0	378	
13	0	0	0	0	636	
14	0	0	0	0	376	
15	0	0	0	0	631	
0	0	0	0	0	375	
1	0	0	0	0	638	
2	0	0	0	0	370	
3	0	0	0	0	634	
4	0	0	0	0	380	
5	0	0	0	0	628	
6	0	0	0	0	381	
7	0	0	0	0	634	
8	0	0	0	0	374	
9	0	0	0	0	630	
10	0	0	0	0	374	
11	0	0	0	0	640	
12	0	0	0	0	369	
13	0	0	0	0	633	
14	0	0	0	0	374	
15	0	0	0	0	632	
0	0	0	0	0	374	
1	0	0	0	0	637	
2	0	0	0	0	375	
3	0	0	0	0	643	
4	0	0	0	0	369	
5	0	0	0	0	636	
6	0	0	0	0	377	
7	0	0	0	0	634	
8	0	0	0	0	375	
9	0	0	0	0	632	
10	0	0	0	0	378	
11	0	0	0	0	632	
12	0	0	0	0	373	
13	0	0	0	0	636	
14	0	0	0	0	370	
15	0	0	0	0	629	
0	0	0	0	0	369	
1	0	0	0	0	630	
2	0	0	0	0	376	
3	0	0	0	0	632	
4	0	0	0	0	375	
5	0	0	0	0	632	
6	0	0	0	0	372	
7	0	0	0	0	636	
8	0	0	0	0	376	
9	0	0	0	0	628	
10	0	0	0	0	374	
11	0	0	0	0	635	
12	0	0	0	0	373	
13	0	0	0	0	638	
14	0	0	0	0	382	
15	0	0	0	0	635	
0	0	0	0	0	372	
1	0	0	0	0	635	
2	0	0	0	0	381	
3	0	0	0	0	633	
4	0	0	0	0	383	
5	0	0	0	0	636	
6	0	0	0	0	374	
7	0	0	0	0	634	
8	0	0	0	0	380	
9	0	0	0	0	634	
10	0	0	0	0	369	
11	0	0	0	0	628	
12	0	0	0	0	373	
13	0	0	0	0	630	
14	0	0	0	0	377	
15	0	0	0	0	634	
0	0	0	0	0	378	
1	0	0	0	0	624	
2	0	0	0	0	383	
3	0	0	0	0	627	
4	0	0	0	0	383	
5	0	0	0	0	632	
6	0	0	0	0	387	
7	0	0	0	0	634	
8	0	0	0	0	379	
9	0	0	0	0	637	
10	0	0	0	0	370	
11	0	0	0	0	632	
12	0	0	0	0	384	
13	0	0	0	0	627	
14	0	0	0	0	380	
15	0	0	0	0	629	
0	0	0	0	0	375	
1	0	0	0	0	633	
2	0	0	0	0	377	
3	0	0	0	0	635	
4	0	0	0	0	376	
5	0	0	0	0	632	
6	0	0	0	0	380	
7	0	0	0	0	633	
8	0	0	0	0	374	
9	0	0	0	0	633	
10	0	0	0	0	375	
11	0	0	0	0	632	
12	0	0	0	0	378	
13	0	0	0	0	639	
14	0	0	0	0	369	
15	0	0	0	0	636	
0	0	0	0	0	365	
1	0	0	0	0	638	
2	0	0	0	0	369	
3	0	0	0	0	640	
4	0	0	0	0	362	
5	0	0	0	0	633	
6	0	0	0	0	369	
7	0	0	0	0	643	
8	0	0	0	0	367	
9	0	0	0	0	638	
10	0	0	0	0	372	
11	0	0	0	0	646	
12	0	0	0	0	368	
13	0	0	0	0	632	
14	0	0	0	0	369	
15	0	0	0	0	637	
0	0	0	0	0	367	
1	0	0	0	0	638	
2	0	0	0	0	367	
3	0	0	0	0	639	
4	0	0	0	0	367	
5	0	0	0	0	635	
6	0	0	0	0	371	
7	0	0	0	0	641	
8	0	0	0	0	361	
9	0	0	0	0	642	
10	0	0	0	0	372	
11	0	0	0	0	638	
12	0	0	0	0	368	
13	0	0	0	0	644	
14	0	0	0	0	371	
15	0	0	0	0	641	
0	0	0	0	0	371	
1	0	0	0	0	632	
2	0	0	0	0	371	
3	0	0	0	0	633	
4	0	0	0	0	366	
5	0	0	0	0	639	
6	0	0	0	0	371	
7	0	0	0	0	643	
8	0	0	0	0	367	
9	0	0	0	0	631	
10	0	0	0	0	365	
11	0	0	0	0	637	
12	0	0	0	0	366	
13	0	0	0	0	642	
14	0	0	0	0	372	
15	0	0	0	0	639	
0	0	0	0	0	360	
1	0	0	0	0	640	
2	0	0	0	0	371	
3	0	0	0	0	635	
4	0	0	0	0	375	
5	0	0	0	0	637	
6	0	0	0	0	369	
7	0	0	0	0	634	
8	0	0	0	0	366	
9	0	0	0	0	639	
10	0	0	0	0	367	
11	0	0	0	0	641	
12	0	0	0	0	365	
13	0	0	0	0	641	
14	0	0	0	0	369	
15	0	0	0	0	639	
0	0	0	0	0	371	
1	0	0	0	0	632	
2	0	0	0	0	365	
3	0	0	0	0	647	
4	0	0	0	0	369	
5	0	0	0	0	636	
6	0	0	0	0	368	
7	0	0	0	0	640	
8	0	0	0	0	371	
9	0	0	0	0	635	
10	0	0	0	0	357	
11	0	0	0	0	644	
12	0	0	0	0	357	
13	0	0	0	0	638	
14	0	0	0	0	364	
15	0	0	0	0	635	
0	0	0	0	0	365	
1	0	0	0	0	648	
2	0	0	0	0	371	
3	0	0	0	0	637	
4	0	0	0	0	368	
5	0	0	0	0	636	
6	0	0	0	0	359	
7	0	0	0	0	637	
8	0	0	0	0	366	
9	0	0	0	0	643	
10	0	0	0	0	372	
11	0	0	0	0	642	
12	0	0	0	0	365	
13	0	0	0	0	639	
14	0	0	0	0	363	
15	0	0	0	0	637	
0	0	0	0	0	362	
1	0	0	0	0	638	
2	0	0	0	0	364	
3	0	0	0	0	640	
4	0	0	0	0	364	
5	0	0	0	0	641	
6	0	0	0	0	361	
7	0	0	0	0	635	
8	0	0	0	0	365	
9	0	0	0	0	643	
10	0	0	0	0	369	
11	0	0	0	0	636	
12	0	0	0	0	368	
13	0	0	0	0	635	
14	0	0	0	0	367	
15	0	0	0	0	641	
0	0	0	0	0	366	
1	0	0	0	0	635	
2	0	0	0	0	367	
3	0	0	0	0	646	
4	0	0	0	0	358	
5	0	0	0	0	646	
6	0	0	0	0	366	
7	0	0	0	0	646	
8	0	0	0	0	368	
9	0	0	0	0	639	
10	0	0	0	0	363	
11	0	0	0	0	641	
12	0	0	0	0	362	
13	0	0	0	0	643	
14	0	0	0	0	370	
15	0	0	0	0	639	
0	0	0	0	0	361	
1	0	0	0	0	637	
2	0	0	0	0	366	
3	0	0	0	0	638	
4	0	0	0	0	368	
5	0	0	0	0	639	
6	0	0	0	0	371	
7	0	0	0	0	639	
8	0	0	0	0	370	
9	0	0	0	0	646	
10	0	0	0	0	361	
11	0	0	0	0	646	
12	0	0	0	0	371	
13	0	0	0	0	642	
14	0	0	0	0	368	
15	0	0	0	0	638	
0	0	0	0	0	370	
1	0	0	0	0	645	
2	0	0	0	0	368	
3	0	0	0	0	643	
4	0	0	0	0	370	
5	0	0	0	0	639	
6	0	0	0	0	357	
7	0	0	0	0	637	
8	0	0	0	0	367	
9	0	0	0	0	646	
10	0	0	0	0	365	
11	0	0	0	0	645	
12	0	0	0	0	362	
13	0	0	0	0	639	
14	0	0	0	0	366	
15	0	0	0	0	637	
0	0	0	0	0	364	
1	0	0	0	0	640	
2	0	0	0	0	368	
3	0	0	0	0	645	
4	0	0	0	0	363	
5	0	0	0	0	638	
6	0	0	0	0	361	
7	0	0	0	0	647	
8	0	0	0	0	369	
9	0	0	0	0	644	
10	0	0	0	0	364	
11	0	0	0	0	636	
12	0	0	0	0	367	
13	0	0	0	0	642	
14	0	0	0	0	365	
15	0	0	0	0	646	
0	0	0	0	0	366	
1	0	0	0	0	642	
2	0	0	0	0	367	
3	0	0	0	0	640	
4	0	0	0	0	365	
5	0	0	0	0	641	
6	0	0	0	0	363	
7	0	0	0	0	642	
8	0	0	0	0	367	
9	0	0	0	0	651	
10	0	0	0	0	369	
11	0	0	0	0	637	
12	0	0	0	0	359	
13	0	0	0	0	643	
14	0	0	0	0	366	
15	0	0	0	0	639	
0	0	0	0	0	367	
1	0	0	0	0	638	
2	0	0	0	0	366	
3	0	0	0	0	641	
4	0	0	0	0	359	
5	0	0	0	0	640	
6	0	0	0	0	367	
7	0	0	0	0	646	
8	0	0	0	0	358	
9	0	0	0	0	645	
10	0	0	0	0	365	
11	0	0	0	0	633	
12	0	0	0	0	363	
13	0	0	0	0	643	
14	0	0	0	0	363	
15	0	0	0	0	642	
0	0	0	0	0	364	
1	0	0	0	0	639	
2	0	0	0	0	361	
3	0	0	0	0	638	
4	0	0	0	0	372	
5	0	0	0	0	639	
6	0	0	0	0	375	
7	0	0	0	0	633	
8	0	0	0	0	369	
9	0	0	0	0	638	
10	0	0	0	0	367	
11	0	0	0	0	641	
12	0	0	0	0	368	
13	0	0	0	0	644	
14	0	0	0	0	371	
15	0	0	0	0	638	
0	0	0	0	0	367	
1	0	0	0	0	638	
2	0	0	0	0	363	
3	0	0	0	0	637	
4	0	0	0	0	357	
5	0	0	0	0	639	
6	0	0	0	0	361	
7	0	0	0	0	641	
8	0	0	0	0	367	
9	0	0	0	0	640	
10	0	0	0	0	363	
11	0	0	0	0	645	
12	0	0	0	0	370	
13	0	0	0	0	642	
14	0	0	0	0	366	
15	0	0	0	0	640	
0	0	0	0	0	370	
1	0	0	0	0	645	
2	0	0	0	0	371	
3	0	0	0	0	639	
4	0	0	0	0	363	
5	0	0	0	0	639	
6	0	0	0	0	364	
7	0	0	0	0	643	
8	0	0	0	0	375	
9	0	0	0	0	643	
10	0	0	0	0	368	
11	0	0	0	0	639	
12	0	0	0	0	364	
13	0	0	0	0	646	
14	0	0	0	0	363	
15	0	0	0	0	638	
0	0	0	0	0	368	
1	0	0	0	0	639	
2	0	0	0	0	368	
3	0	0	0	0	639	
4	0	0	0	0	363	
5	0	0	0	0	646	
6	0	0	0	0	364	
7	0	0	0	0	636	
8	0	0	0	0	365	
9	0	0	0	0	637	
10	0	0	0	0	367	
11	0	0	0	0	643	
12	0	0	0	0	371	
13	0	0	0	0	644	
14	0	0	0	0	376	
15	0	0	0	0	639	
0	0	0	0	0	372	
1	0	0	0	0	643	
2	0	0	0	0	366	
3	0	0	0	0	640	
4	0	0	0	0	366	
5	0	0	0	0	637	
6	0	0	0	0	371	
7	0	0	0	0	632	
8	0	0	0	0	366	
9	0	0	0	0	636	
10	0	0	0	0	370	
11	0	0	0	0	636	
12	0	0	0	0	368	
13	0	0	0	0	635	
14	0	0	0	0	365	
15	0	0	0	0	638	
0	0	0	0	0	364	
1	0	0	0	0	635	
2	0	0	0	0	372	
3	0	0	0	0	641	
4	0	0	0	0	367	
5	0	0	0	0	639	
6	0	0	0	0	367	
7	0	0	0	0	632	
8	0	0	0	0	368	
9	0	0	0	0	639	
10	0	0	0	0	368	
11	0	0	0	0	640	
12	0	0	0	0	369	
13	0	0	0	0	640	
14	0	0	0	0	369	
15	0	0	0	0	636	
0	0	0	0	0	368	
1	0	0	0	0	638	
2	0	0	0	0	372	
3	0	0	0	0	643	
4	0	0	0	0	367	
5	0	0	0	0	632	
6	0	0	0	0	364	
7	0	0	0	0	642	
8	0	0	0	0	368	
9	0	0	0	0	636	
10	0	0	0	0	366	
11	0	0	0	0	644	
12	0	0	0	0	368	
13	0	0	0	0	644	
14	0	0	0	0	371	
15	0	0	0	0	634	
0	0	0	0	0	369	
1	0	0	0	0	635	
2	0	0	0	0	374	
3	0	0	0	0	635	
4	0	0	0	0	367	
5	0	0	0	0	637	
6	0	0	0	0	370	
7	0	0	0	0	638	
8	0	0	0	0	369	
9	0	0	0	0	639	
10	0	0	0	0	370	
11	0	0	0	0	642	
12	0	0	0	0	366	
13	0	0	0	0	635	
14	0	0	0	0	372	
15	0	0	0	0	637	
0	0	0	0	0	367	
1	0	0	0	0	638	
2	0	0	0	0	368	
3	0	0	0	0	639	
4	0	0	0	0	368	
5	0	0	0	0	637	
6	0	0	0	0	364	
7	0	0	0	0	638	
8	0	0	0	0	364	
9	0	0	0	0	636	
10	0	0	0	0	367	
11	0	0	0	0	643	
12	0	0	0	0	368	
13	0	0	0	0	644	
14	0	0	0	0	369	
15	0	0	0	0	642	
0	0	0	0	0	371	
1	0	0	0	0	632	
2	0	0	0	0	376	
3	0	0	0	0	636	
4	0	0	0	0	374	
5	0	0	0	0	642	
6	0	0	0	0	368	
7	0	0	0	0	636	
8	0	0	0	0	372	
9	0	0	0	0	637	
10	0	0	0	0	371	
11	0	0	0	0	636	
12	0	0	0	0	368	
13	0	0	0	0	635	
14	0	0	0	0	371	
15	0	0	0	0	640	
0	0	0	0	0	372	
1	0	0	0	0	642	
2	0	0	0	0	371	
3	0	0	0	0	634	
4	0	0	0	0	368	
5	0	0	0	0	639	
6	0	0	0	0	372	
7	0	0	0	0	637	
8	0	0	0	0	369	
9	0	0	0	0	630	
10	0	0	0	0	373	
11	0	0	0	0	633	
12	0	0	0	0	368	
13	0	0	0	0	638	
14	0	0	0	0	373	
15	0	0	0	0	640	
0	0	0	0	0	364	
1	0	0	0	0	629	
2	0	0	0	0	368	
3	0	0	0	0	635	
4	0	0	0	0	366	
5	0	0	0	0	636	
6	0	0	0	0	369	
7	0	0	0	0	632	
8	0	0	0	0	371	
9	0	0	0	0	639	
10	0	0	0	0	369	
11	0	0	0	0	642	
12	0	0	0	0	367	
13	0	0	0	0	632	
14	0	0	0	0	373	
15	0	0	0	0	632	
0	0	0	0	0	371	
1	0	0	0	0	634	
2	0	0	0	0	367	
3	0	0	0	0	641	
4	0	0	0	0	360	
5	0	0	0	0	635	
6	0	0	0	0	371	
7	0	0	0	0	637	
8	0	0	0	0	369	
9	0	0	0	0	640	
10	0	0	0	0	367	
11	0	0	0	0	632	
12	0	0	0	0	376	
13	0	0	0	0	631	
14	0	0	0	0	368	
15	0	0	0	0	639	
0	0	0	0	0	373	
1	0	0	0	0	631	
2	0	0	0	0	375	
3	0	0	0	0	632	
4	0	0	0	0	372	
5	0	0	0	0	642	
6	0	0	0	0	372	
7	0	0	0	0	633	
8	0	0	0	0	371	
9	0	0	0	0	632	
10	0	0	0	0	369	
11	0	0	0	0	639	
12	0	0	0	0	372	
13	0	0	0	0	633	
14	0	0	0	0	376	
15	0	0	0	0	633	
0	0	0	0	0	366	
1	0	0	0	0	640	
2	0	0	0	0	371	
3	0	0	0	0	636	
4	0	0	0	0	371	
5	0	0	0	0	639	
6	0	0	0	0	376	
7	0	0	0	0	636	
8	0	0	0	0	370	
9	0	0	0	0	639	
10	0	0	0	0	368	
11	0	0	0	0	640	
12	0	0	0	0	367	
13	0	0	0	0	631	
14	0	0	0	0	377	
15	0	0	0	0	634	
0	0	0	0	0	375	
1	0	0	0	0	642	
2	0	0	0	0	365	
3	0	0	0	0	634	
4	0	0	0	0	369	
5	0	0	0	0	641	
6	0	0	0	0	368	
7	0	0	0	0	642	
8	0	0	0	0	371	
9	0	0	0	0	641	
10	0	0	0	0	374	
11	0	0	0	0	635	
12	0	0	0	0	371	
13	0	0	0	0	636	
14	0	0	0	0	370	
15	0	0	0	0	644	
0	0	0	0	0	367	
1	0	0	0	0	636	
2	0	0	0	0	370	
3	0	0	0	0	636	
4	0	0	0	0	369	
5	0	0	0	0	636	
6	0	0	0	0	368	
7	0	0	0	0	636	
8	0	0	0	0	363	
9	0	0	0	0	642	
10	0	0	0	0	366	
11	0	0	0	0	643	
12	0	0	0	0	368	
13	0	0	0	0	641	
14	0	0	0	0	367	
15	0	0	0	0	643	
0	0	0	0	0	362	
1	0	0	0	0	633	
2	0	0	0	0	363	
3	0	0	0	0	640	
4	0	0	0	0	375	
5	0	0	0	0	636	
6	0	0	0	0	370	
7	0	0	0	0	644	
8	0	0	0	0	372	
9	0	0	0	0	636	
10	0	0	0	0	369	
11	0	0	0	0	640	
12	0	0	0	0	371	
13	0	0	0	0	639	
14	0	0	0	0	367	
15	0	0	0	0	643	
0	0	0	0	0	368	
1	0	0	0	0	640	
2	0	0	0	0	367	
3	0	0	0	0	647	
4	0	0	0	0	371	
5	0	0	0	0	642	
6	0	0	0	0	371	
7	0	0	0	0	646	
8	0	0	0	0	370	
9	0	0	0	0	646	
10	0	0	0	0	365	
11	0	0	0	0	638	
12	0	0	0	0	363	
13	0	0	0	0	646	
14	0	0	0	0	366	
15	0	0	0	0	637	
0	0	0	0	0	367	
1	0	0	0	0	644	
2	0	0	0	0	366	
3	0	0	0	0	637	
4	0	0	0	0	363	
5	0	0	0	0	646	
6	0	0	0	0	366	
7	0	0	0	0	642	
8	0	0	0	0	366	
9	0	0	0	0	642	
10	0	0	0	0	361	
11	0	0	0	0	645	
12	0	0	0	0	362	
13	0	0	0	0	638	
14	0	0	0	0	369	
15	0	0	0	0	637	
0	0	0	0	0	365	
1	0	0	0	0	640	
2	0	0	0	0	368	
3	0	0	0	0	643	
4	0	0	0	0	372	
5	0	0	0	0	648	
6	0	0	0	0	364	
7	0	0	0	0	644	
8	0	0	0	0	369	
9	0	0	0	0	644	
10	0	0	0	0	371	
11	0	0	0	0	640	
12	0	0	0	0	361	
13	0	0	0	0	644	
14	0	0	0	0	358	
15	0	0	0	0	640	
0	0	0	0	0	367	
1	0	0	0	0	640	
2	0	0	0	0	367	
3	0	0	0	0	636	
4	0	0	0	0	361	
5	0	0	0	0	638	
6	0	0	0	0	357	
7	0	0	0	0	639	
8	0	0	0	0	360	
9	0	0	0	0	641	
10	0	0	0	0	366	
11	0	0	0	0	640	
12	0	0	0	0	375	
13	0	0	0	0	635	
14	0	0	0	0	366	
15	0	0	0	0	645	
0	0	0	0	0	361	
1	0	0	0	0	640	
2	0	0	0	0	368	
3	0	0	0	0	638	
4	0	0	0	0	362	
5	0	0	0	0	646	
6	0	0	0	0	370	
7	0	0	0	0	639	
8	0	0	0	0	361	
9	0	0	0	0	643	
10	0	0	0	0	368	
11	0	0	0	0	640	
12	0	0	0	0	358	
13	0	0	0	0	647	
14	0	0	0	0	368	
15	0	0	0	0	647	
0	0	0	0	0	358	
1	0	0	0	0	643	
2	0	0	0	0	360	
3	0	0	0	0	639	
4	0	0	0	0	367	
5	0	0	0	0	643	
6	0	0	0	0	370	
7	0	0	0	0	639	
8	0	0	0	0	362	
9	0	0	0	0	641	
10	0	0	0	0	361	
11	0	0	0	0	639	
12	0	0	0	0	359	
13	0	0	0	0	644	
14	0	0	0	0	361	
15	0	0	0	0	649	
0	0	0	0	0	367	
1	0	0	0	0	636	
2	0	0	0	0	359	
3	0	0	0	0	643	
4	0	0	0	0	370	
5	0	0	0	0	636	
6	0	0	0	0	363	
7	0	0	0	0	645	
8	0	0	0	0	358	
9	0	0	0	0	638	
10	0	0	0	0	358	
11	0	0	0	0	648	
12	0	0	0	0	367	
13	0	0	0	0	637	
14	0	0	0	0	367	
15	0	0	0	0	647	
0	0	0	0	0	359	
1	0	0	0	0	647	
2	0	0	0	0	370	
3	0	0	0	0	642	
4	0	0	0	0	369	
5	0	0	0	0	636	
6	0	0	0	0	359	
7	0	0	0	0	646	
8	0	0	0	0	353	
9	0	0	0	0	643	
10	0	0	0	0	367	
11	0	0	0	0	646	
12	0	0	0	0	362	
13	0	0	0	0	643	
14	0	0	0	0	355	
15	0	0	0	0	645	
0	0	0	0	0	361	
1	0	0	0	0	646	
2	0	0	0	0	368	
3	0	0	0	0	647	
4	0	0	0	0	364	
5	0	0	0	0	648	
6	0	0	0	0	355	
7	0	0	0	0	647	
8	0	0	0	0	361	
9	0	0	0	0	641	
10	0	0	0	0	354	
11	0	0	0	0	647	
12	0	0	0	0	363	
13	0	0	0	0	643	
14	0	0	0	0	354	
15	0	0	0	0	641	
0	0	0	0	0	352	
1	0	0	0	0	643	
2	0	0	0	0	361	
3	0	0	0	0	640	
4	0	0	0	0	363	
5	0	0	0	0	638	
6	0	0	0	0	358	
7	0	0	0	0	645	
8	0	0	0	0	365	
9	0	0	0	0	647	
10	0	0	0	0	361	
11	0	0	0	0	641	
12	0	0	0	0	355	
13	0	0	0	0	652	
14	0	0	0	0	357	
15	0	0	0	0	645	
0	0	0	0	0	355	
1	0	0	0	0	643	
2	0	0	0	0	363	
3	0	0	0	0	645	
4	0	0	0	0	361	
5	0	0	0	0	642	
6	0	0	0	0	359	
7	0	0	0	0	644	
8	0	0	0	0	357	
9	0	0	0	0	647	
10	0	0	0	0	352	
11	0	0	0	0	635	
12	0	0	0	0	361	
13	0	0	0	0	645	
14	0	0	0	0	359	
15	0	0	0	0	644	
0	0	0	0	0	364	
1	0	0	0	0	651	
2	0	0	0	0	360	
3	0	0	0	0	651	
4	0	0	0	0	361	
5	0	0	0	0	640	
6	0	0	0	0	361	
7	0	0	0	0	641	
8	0	0	0	0	354	
9	0	0	0	0	648	
10	0	0	0	0	361	
11	0	0	0	0	634	
12	0	0	0	0	359	
13	0	0	0	0	640	
14	0	0	0	0	358	
15	0	0	0	0	642	
0	0	0	0	0	362	
1	0	0	0	0	650	
2	0	0	0	0	354	
3	0	0	0	0	639	
4	0	0	0	0	353	
5	0	0	0	0	645	
6	0	0	0	0	354	
7	0	0	0	0	646	
8	0	0	0	0	360	
9	0	0	0	0	650	
10	0	0	0	0	359	
11	0	0	0	0	645	
12	0	0	0	0	369	
13	0	0	0	0	649	
14	0	0	0	0	355	
15	0	0	0	0	638	
0	0	0	0	0	365	
1	0	0	0	0	645	
2	0	0	0	0	354	
3	0	0	0	0	650	
4	0	0	0	0	355	
5	0	0	0	0	641	
6	0	0	0	0	358	
7	0	0	0	0	649	
8	0	0	0	0	363	
9	0	0	0	0	643	
10	0	0	0	0	354	
11	0	0	0	0	643	
12	0	0	0	0	353	
13	0	0	0	0	650	
14	0	0	0	0	360	
15	0	0	0	0	647	
0	0	0	0	0	359	
1	0	0	0	0	643	
2	0	0	0	0	360	
3	0	0	0	0	645	
4	0	0	0	0	364	
5	0	0	0	0	642	
6	0	0	0	0	359	
7	0	0	0	0	648	
8	0	0	0	0	352	
9	0	0	0	0	645	
10	0	0	0	0	352	
11	0	0	0	0	644	
12	0	0	0	0	361	
13	0	0	0	0	640	
14	0	0	0	0	360	
15	0	0	0	0	647	
0	0	0	0	0	358	
1	0	0	0	0	651	
2	0	0	0	0	362	
3	0	0	0	0	647	
4	0	0	0	0	357	
5	0	0	0	0	647	
6	0	0	0	0	355	
7	0	0	0	0	644	
8	0	0	0	0	359	
9	0	0	0	0	644	
10	0	0	0	0	359	
11	0	0	0	0	647	
12	0	0	0	0	361	
13	0	0	0	0	648	
14	0	0	0	0	359	
15	0	0	0	0	653	
0	0	0	0	0	355	
1	0	0	0	0	641	
2	0	0	0	0	364	
3	0	0	0	0	648	
4	0	0	0	0	355	
5	0	0	0	0	642	
6	0	0	0	0	351	
7	0	0	0	0	645	
8	0	0	0	0	361	
9	0	0	0	0	649	
10	0	0	0	0	364	
11	0	0	0	0	644	
12	0	0	0	0	356	
13	0	0	0	0	645	
14	0	0	0	0	354	
15	0	0	0	0	649	
0	0	0	0	0	361	
1	0	0	0	0	647	
2	0	0	0	0	358	
3	0	0	0	0	654	
4	0	0	0	0	352	
5	0	0	0	0	644	
6	0	0	0	0	361	
7	0	0	0	0	635	
8	0	0	0	0	354	
9	0	0	0	0	639	
10	0	0	0	0	363	
11	0	0	0	0	646	
12	0	0	0	0	353	
13	0	0	0	0	653	
14	0	0	0	0	369	
15	0	0	0	0	647	
0	0	0	0	0	364	
1	0	0	0	0	644	
2	0	0	0	0	359	
3	0	0	0	0	645	
4	0	0	0	0	361	
5	0	0	0	0	655	
6	0	0	0	0	350	
7	0	0	0	0	641	
8	0	0	0	0	349	
9	0	0	0	0	642	
10	0	0	0	0	357	
11	0	0	0	0	643	
12	0	0	0	0	353	
13	0	0	0	0	644	
14	0	0	0	0	363	
15	0	0	0	0	647	
0	0	0	0	0	355	
1	0	0	0	0	649	
2	0	0	0	0	360	
3	0	0	0	0	644	
4	0	0	0	0	358	
5	0	0	0	0	641	
6	0	0	0	0	357	
7	0	0	0	0	640	
8	0	0	0	0	357	
9	0	0	0	0	646	
10	0	0	0	0	352	
11	0	0	0	0	646	
12	0	0	0	0	359	
13	0	0	0	0	647	
14	0	0	0	0	360	
15	0	0	0	0	639	
0	0	0	0	0	364	
1	0	0	0	0	640	
2	0	0	0	0	351	
3	0	0	0	0	641	
4	0	0	0	0	355	
5	0	0	0	0	645	
6	0	0	0	0	363	
7	0	0	0	0	637	
8	0	0	0	0	355	
9	0	0	0	0	640	
10	0	0	0	0	355	
11	0	0	0	0	646	
12	0	0	0	0	352	
13	0	0	0	0	649	
14	0	0	0	0	361	
15	0	0	0	0	639	
0	0	0	0	0	362	
1	0	0	0	0	649	
2	0	0	0	0	364	
3	0	0	0	0	639	
4	0	0	0	0	358	
5	0	0	0	0	641	
6	0	0	0	0	359	
7	0	0	0	0	644	
8	0	0	0	0	358	
9	0	0	0	0	640	
10	0	0	0	0	359	
11	0	0	0	0	649	
12	0	0	0	0	357	
13	0	0	0	0	644	
14	0	0	0	0	349	
15	0	0	0	0	639	
0	0	0	0	0	362	
1	0	0	0	0	644	
2	0	0	0	0	359	
3	0	0	0	0	646	
4	0	0	0	0	359	
5	0	0	0	0	646	
6	0	0	0	0	369	
7	0	0	0	0	649	
8	0	0	0	0	352	
9	0	0	0	0	643	
10	0	0	0	0	356	
11	0	0	0	0	647	
12	0	0	0	0	352	
13	0	0	0	0	638	
14	0	0	0	0	359	
15	0	0	0	0	645	
0	0	0	0	0	356	
1	0	0	0	0	644	
2	0	0	0	0	364	
3	0	0	0	0	644	
4	0	0	0	0	358	
5	0	0	0	0	645	
6	0	0	0	0	359	
7	0	0	0	0	647	
8	0	0	0	0	359	
9	0	0	0	0	644	
10	0	0	0	0	360	
11	0	0	0	0	647	
12	0	0	0	0	349	
13	0	0	0	0	649	
14	0	0	0	0	365	
15	0	0	0	0	645	
0	0	0	0	0	355	
1	0	0	0	0	648	
2	0	0	0	0	359	
3	0	0	0	0	639	
4	0	0	0	0	363	
5	0	0	0	0	643	
6	0	0	0	0	360	
7	0	0	0	0	651	
8	0	0	0	0	359	
9	0	0	0	0	640	
10	0	0	0	0	353	
11	0	0	0	0	647	
12	0	0	0	0	362	
13	0	0	0	0	646	
14	0	0	0	0	351	
15	0	0	0	0	646	
0	0	0	0	0	355	
1	0	0	0	0	650	
2	0	0	0	0	359	
3	0	0	0	0	645	
4	0	0	0	0	350	
5	0	0	0	0	646	
6	0	0	0	0	363	
7	0	0	0	0	636	
8	0	0	0	0	355	
9	0	0	0	0	644	
10	0	0	0	0	358	
11	0	0	0	0	641	
12	0	0	0	0	355	
13	0	0	0	0	641	
14	0	0	0	0	357	
15	0	0	0	0	643	
0	0	0	0	0	354	
1	0	0	0	0	645	
2	0	0	0	0	351	
3	0	0	0	0	651	
4	0	0	0	0	355	
5	0	0	0	0	647	
6	0	0	0	0	362	
7	0	0	0	0	639	
8	0	0	0	0	352	
9	0	0	0	0	649	
10	0	0	0	0	358	
11	0	0	0	0	644	
12	0	0	0	0	358	
13	0	0	0	0	644	
14	0	0	0	0	357	
15	0	0	0	0	643	
0	0	0	0	0	356	
1	0	0	0	0	650	
2	0	0	0	0	354	
3	0	0	0	0	647	
4	0	0	0	0	350	
5	0	0	0	0	650	
6	0	0	0	0	358	
7	0	0	0	0	645	
8	0	0	0	0	357	
9	0	0	0	0	646	
10	0	0	0	0	361	
11	0	0	0	0	648	
12	0	0	0	0	355	
13	0	0	0	0	645	
14	0	0	0	0	355	
15	0	0	0	0	648	
0	0	0	0	0	355	
1	0	0	0	0	648	
2	0	0	0	0	358	
3	0	0	0	0	640	
4	0	0	0	0	351	
5	0	0	0	0	643	
6	0	0	0	0	362	
7	0	0	0	0	647	
8	0	0	0	0	350	
9	0	0	0	0	651	
10	0	0	0	0	363	
11	0	0	0	0	644	
12	0	0	0	0	352	
13	0	0	0	0	639	
14	0	0	0	0	353	
15	0	0	0	0	643	
0	0	0	0	0	356	
1	0	0	0	0	646	
2	0	0	0	0	355	
3	0	0	0	0	645	
4	0	0	0	0	354	
5	0	0	0	0	645	
6	0	0	0	0	357	
7	0	0	0	0	650	
8	0	0	0	0	362	
9	0	0	0	0	643	
10	0	0	0	0	355	
11	0	0	0	0	644	
12	0	0	0	0	353	
13	0	0	0	0	640	
14	0	0	0	0	358	
15	0	0	0	0	643	
0	0	0	0	0	359	
1	0	0	0	0	648	
2	0	0	0	0	358	
3	0	0	0	0	644	
4	0	0	0	0	361	
5	0	0	0	0	642	
6	0	0	0	0	356	
7	0	0	0	0	643	
8	0	0	0	0	357	
9	0	0	0	0	645	
10	0	0	0	0	359	
11	0	0	0	0	643	
12	0	0	0	0	361	
13	0	0	0	0	647	
14	0	0	0	0	364	
15	0	0	0	0	639	
0	0	0	0	0	351	
1	0	0	0	0	646	
2	0	0	0	0	358	
3	0	0	0	0	649	
4	0	0	0	0	361	
5	0	0	0	0	643	
6	0	0	0	0	351	
7	0	0	0	0	648	
8	0	0	0	0	354	
9	0	0	0	0	639	
10	0	0	0	0	355	
11	0	0	0	0	647	
12	0	0	0	0	364	
13	0	0	0	0	639	
14	0	0	0	0	359	
15	0	0	0	0	643	
0	0	0	0	0	353	
1	0	0	0	0	643	
2	0	0	0	0	351	
3	0	0	0	0	648	
4	0	0	0	0	350	
5	0	0	0	0	642	
6	0	0	0	0	350	
7	0	0	0	0	642	
8	0	0	0	0	359	
9	0	0	0	0	650	
10	0	0	0	0	351	
11	0	0	0	0	648	
12	0	0	0	0	355	
13	0	0	0	0	643	
14	0	0	0	0	354	
15	0	0	0	0	636	
0	0	0	0	0	361	
1	0	0	0	0	644	
2	0	0	0	0	354	
3	0	0	0	0	648	
4	0	0	0	0	355	
5	0	0	0	0	652	
6	0	0	0	0	359	
7	0	0	0	0	639	
8	0	0	0	0	364	
9	0	0	0	0	640	
10	0	0	0	0	361	
11	0	0	0	0	639	
12	0	0	0	0	365	
13	0	0	0	0	646	
14	0	0	0	0	358	
15	0	0	0	0	641	
0	0	0	0	0	355	
1	0	0	0	0	647	
2	0	0	0	0	360	
3	0	0	0	0	642	
4	0	0	0	0	356	
5	0	0	0	0	641	
6	0	0	0	0	361	
7	0	0	0	0	648	
8	0	0	0	0	353	
9	0	0	0	0	641	
10	0	0	0	0	364	
11	0	0	0	0	639	
12	0	0	0	0	353	
13	0	0	0	0	643	
14	0	0	0	0	352	
15	0	0	0	0	643	
0	0	0	0	0	355	
1	0	0	0	0	647	
2	0	0	0	0	362	
3	0	0	0	0	646	
4	0	0	0	0	363	
5	0	0	0	0	649	
6	0	0	0	0	352	
7	0	0	0	0	641	
8	0	0	0	0	352	
9	0	0	0	0	652	
10	0	0	0	0	356	
11	0	0	0	0	648	
12	0	0	0	0	359	
13	0	0	0	0	647	
14	0	0	0	0	360	
15	0	0	0	0	643	
0	0	0	0	0	352	
1	0	0	0	0	643	
2	0	0	0	0	361	
3	0	0	0	0	650	
4	0	0	0	0	363	
5	0	0	0	0	640	
6	0	0	0	0	355	
7	0	0	0	0	646	
8	0	0	0	0	355	
9	0	0	0	0	642	
10	0	0	0	0	353	
11	0	0	0	0	639	
12	0	0	0	0	358	
13	0	0	0	0	645	
14	0	0	0	0	354	
15	0	0	0	0	647	
0	0	0	0	0	358	
1	0	0	0	0	651	
2	0	0	0	0	360	
3	0	0	0	0	641	
4	0	0	0	0	361	
5	0	0	0	0	642	
6	0	0	0	0	357	
7	0	0	0	0	648	
8	0	0	0	0	346	
9	0	0	0	0	647	
10	0	0	0	0	361	
11	0	0	0	0	641	
12	0	0	0	0	358	
13	0	0	0	0	637	
14	0	0	0	0	352	
15	0	0	0	0	640	
0	0	0	0	0	357	
1	0	0	0	0	646	
2	0	0	0	0	357	
3	0	0	0	0	639	
4	0	0	0	0	360	
5	0	0	0	0	645	
6	0	0	0	0	359	
7	0	0	0	0	642	
8	0	0	0	0	358	
9	0	0	0	0	646	
10	0	0	0	0	356	
11	0	0	0	0	646	
12	0	0	0	0	363	
13	0	0	0	0	643	
14	0	0	0	0	356	
15	0	0	0	0	642	
0	0	0	0	0	366	
1	0	0	0	0	642	
2	0	0	0	0	351	
3	0	0	0	0	641	
4	0	0	0	0	358	
5	0	0	0	0	656	
6	0	0	0	0	360	
7	0	0	0	0	646	
8	0	0	0	0	356	
9	0	0	0	0	646	
10	0	0	0	0	353	
11	0	0	0	0	643	
12	0	0	0	0	355	
13	0	0	0	0	649	
14	0	0	0	0	358	
15	0	0	0	0	649	
0	0	0	0	0	360	
1	0	0	0	0	644	
2	0	0	0	0	358	
3	0	0	0	0	645	
4	0	0	0	0	355	
5	0	0	0	0	644	
6	0	0	0	0	356	
7	0	0	0	0	647	
8	0	0	0	0	355	
9	0	0	0	0	646	
10	0	0	0	0	353	
11	0	0	0	0	644	
12	0	0	0	0	358	
13	0	0	0	0	640	
14	0	0	0	0	356	
15	0	0	0	0	643	
0	0	0	0	0	355	
1	0	0	0	0	648	
2	0	0	0	0	361	
3	0	0	0	0	650	
4	0	0	0	0	354	
5	0	0	0	0	644	
6	0	0	0	0	364	
7	0	0	0	0	639	
8	0	0	0	0	359	
9	0	0	0	0	646	
10	0	0	0	0	349	
11	0	0	0	0	643	
12	0	0	0	0	355	
13	0	0	0	0	652	
14	0	0	0	0	358	
15	0	0	0	0	644	
0	0	0	0	0	357	
1	0	0	0	0	648	
2	0	0	0	0	354	
3	0	0	0	0	649	
4	0	0	0	0	352	
5	0	0	0	0	644	
6	0	0	0	0	351	
7	0	0	0	0	647	
8	0	0	0	0	359	
9	0	0	0	0	643	
10	0	0	0	0	355	
11	0	0	0	0	637	
12	0	0	0	0	356	
13	0	0	0	0	641	
14	0	0	0	0	352	
15	0	0	0	0	647	
0	0	0	0	0	355	
1	0	0	0	0	645	
2	0	0	0	0	345	
3	0	0	0	0	644	
4	0	0	0	0	358	
5	0	0	0	0	635	
6	0	0	0	0	355	
7	0	0	0	0	644	
8	0	0	0	0	357	
9	0	0	0	0	639	
10	0	0	0	0	352	
11	0	0	0	0	641	
12	0	0	0	0	363	
13	0	0	0	0	643	
14	0	0	0	0	359	
15	0	0	0	0	646	
0	0	0	0	0	357	
1	0	0	0	0	646	
2	0	0	0	0	355	
3	0	0	0	0	640	
4	0	0	0	0	353	
5	0	0	0	0	640	
6	0	0	0	0	358	
7	0	0	0	0	638	
8	0	0	0	0	352	
9	0	0	0	0	644	
10	0	0	0	0	359	
11	0	0	0	0	646	
12	0	0	0	0	352	
13	0	0	0	0	644	
14	0	0	0	0	355	
15	0	0	0	0	640	
0	0	0	0	0	355	
1	0	0	0	0	641	
2	0	0	0	0	363	
3	0	0	0	0	648	
4	0	0	0	0	354	
5	0	0	0	0	639	
6	0	0	0	0	353	
7	0	0	0	0	647	
8	0	0	0	0	359	
9	0	0	0	0	642	
10	0	0	0	0	364	
11	0	0	0	0	644	
12	0	0	0	0	354	
13	0	0	0	0	650	
14	0	0	0	0	359	
15	0	0	0	0	641	
0	0	0	0	0	360	
1	0	0	0	0	642	
2	0	0	0	0	358	
3	0	0	0	0	643	
4	0	0	0	0	357	
5	0	0	0	0	650	
6	0	0	0	0	357	
7	0	0	0	0	650	
8	0	0	0	0	351	
9	0	0	0	0	646	
10	0	0	0	0	363	
11	0	0	0	0	642	
12	0	0	0	0	353	
13	0	0	0	0	637	
14	0	0	0	0	359	
15	0	0	0	0	647	
0	0	0	0	0	361	
1	0	0	0	0	647	
2	0	0	0	0	363	
3	0	0	0	0	645	
4	0	0	0	0	359	
5	0	0	0	0	642	
6	0	0	0	0	361	
7	0	0	0	0	639	
8	0	0	0	0	356	
9	0	0	0	0	647	
10	0	0	0	0	360	
11	0	0	0	0	641	
12	0	0	0	0	354	
13	0	0	0	0	646	
14	0	0	0	0	358	
15	0	0	0	0	645	
0	0	0	0	0	352	
1	0	0	0	0	643	
2	0	0	0	0	355	
3	0	0	0	0	648	
4	0	0	0	0	357	
5	0	0	0	0	647	
6	0	0	0	0	355	
7	0	0	0	0	649	
8	0	0	0	0	358	
9	0	0	0	0	644	
10	0	0	0	0	357	
11	0	0	0	0	651	
12	0	0	0	0	357	
13	0	0	0	0	635	
14	0	0	0	0	359	
15	0	0	0	0	650	
0	0	0	0	0	359	
1	0	0	0	0	644	
2	0	0	0	0	359	
3	0	0	0	0	636	
4	0	0	0	0	358	
5	0	0	0	0	641	
6	0	0	0	0	360	
7	0	0	0	0	641	
8	0	0	0	0	356	
9	0	0	0	0	647	
10	0	0	0	0	351	
11	0	0	0	0	638	
12	0	0	0	0	359	
13	0	0	0	0	647	
14	0	0	0	0	361	
15	0	0	0	0	646	
0	0	0	0	0	354	
1	0	0	0	0	649	
2	0	0	0	0	361	
3	0	0	0	0	640	
4	0	0	0	0	360	
5	0	0	0	0	649	
6	0	0	0	0	357	
7	0	0	0	0	643	
8	0	0	0	0	359	
9	0	0	0	0	647	
10	0	0	0	0	356	
11	0	0	0	0	651	
12	0	0	0	0	353	
13	0	0	0	0	643	
14	0	0	0	0	366	
15	0	0	0	0	647	
0	0	0	0	0	357	
1	0	0	0	0	651	
2	0	0	0	0	356	
3	0	0	0	0	644	
4	0	0	0	0	350	
5	0	0	0	0	638	
6	0	0	0	0	352	
7	0	0	0	0	643	
8	0	0	0	0	356	
9	0	0	0	0	638	
10	0	0	0	0	366	
11	0	0	0	0	647	
12	0	0	0	0	354	
13	0	0	0	0	638	
14	0	0	0	0	355	
15	0	0	0	0	641	
0	0	0	0	0	359	
1	0	0	0	0	647	
2	0	0	0	0	352	
3	0	0	0	0	643	
4	0	0	0	0	357	
5	0	0	0	0	639	
6	0	0	0	0	356	
7	0	0	0	0	646	
8	0	0	0	0	361	
9	0	0	0	0	641	
10	0	0	0	0	355	
11	0	0	0	0	647	
12	0	0	0	0	358	
13	0	0	0	0	643	
14	0	0	0	0	362	
15	0	0	0	0	642	
0	0	0	0	0	357	
1	0	0	0	0	642	
2	0	0	0	0	353	
3	0	0	0	0	647	
4	0	0	0	0	359	
5	0	0	0	0	637	
6	0	0	0	0	356	
7	0	0	0	0	643	
8	0	0	0	0	359	
9	0	0	0	0	641	
10	0	0	0	0	353	
11	0	0	0	0	647	
12	0	0	0	0	355	
13	0	0	0	0	640	
14	0	0	0	0	363	
15	0	0	0	0	641	
0	0	0	0	0	354	
1	0	0	0	0	639	
2	0	0	0	0	360	
3	0	0	0	0	639	
4	0	0	0	0	358	
5	0	0	0	0	644	
6	0	0	0	0	358	
7	0	0	0	0	641	
8	0	0	0	0	360	
9	0	0	0	0	643	
10	0	0	0	0	353	
11	0	0	0	0	646	
12	0	0	0	0	358	
13	0	0	0	0	644	
14	0	0	0	0	355	
15	0	0	0	0	637	
0	0	0	0	0	358	
1	0	0	0	0	646	
2	0	0	0	0	353	
3	0	0	0	0	648	
4	0	0	0	0	351	
5	0	0	0	0	646	
6	0	0	0	0	358	
7	0	0	0	0	640	
8	0	0	0	0	357	
9	0	0	0	0	642	
10	0	0	0	0	358	
11	0	0	0	0	646	
12	0	0	0	0	359	
13	0	0	0	0	649	
14	0	0	0	0	351	
15	0	0	0	0	649	
0	0	0	0	0	357	
1	0	0	0	0	647	
2	0	0	0	0	360	
3	0	0	0	0	646	
4	0	0	0	0	358	
5	0	0	0	0	643	
6	0	0	0	0	359	
7	0	0	0	0	643	
8	0	0	0	0	355	
9	0	0	0	0	640	
10	0	0	0	0	359	
11	0	0	0	0	637	
12	0	0	0	0	355	
13	0	0	0	0	643	
14	0	0	0	0	349	
15	0	0	0	0	640	
0	0	0	0	0	354	
1	0	0	0	0	639	
2	0	0	0	0	355	
3	0	0	0	0	647	
4	0	0	0	0	363	
5	0	0	0	0	644	
6	0	0	0	0	357	
7	0	0	0	0	643	
8	0	0	0	0	350	
9	0	0	0	0	643	
10	0	0	0	0	352	
11	0	0	0	0	648	
12	0	0	0	0	358	
13	0	0	0	0	646	
14	0	0	0	0	355	
15	0	0	0	0	640	
0	0	0	0	0	354	
1	0	0	0	0	637	
2	0	0	0	0	356	
3	0	0	0	0	638	
4	0	0	0	0	356	
5	0	0	0	0	643	
6	0	0	0	0	361	
7	0	0	0	0	641	
8	0	0	0	0	351	
9	0	0	0	0	646	
10	0	0	0	0	353	
11	0	0	0	0	645	
12	0	0	0	0	358	
13	0	0	0	0	642	
14	0	0	0	0	363	
15	0	0	0	0	644	
0	0	0	0	0	358	
1	0	0	0	0	634	
2	0	0	0	0	359	
3	0	0	0	0	642	
4	0	0	0	0	357	
5	0	0	0	0	645	
6	0	0	0	0	358	
7	0	0	0	0	643	
8	0	0	0	0	352	
9	0	0	0	0	645	
10	0	0	0	0	365	
11	0	0	0	0	637	
12	0	0	0	0	363	
13	0	0	0	0	647	
14	0	0	0	0	365	
15	0	0	0	0	640	
0	0	0	0	0	362	
1	0	0	0	0	645	
2	0	0	0	0	350	
3	0	0	0	0	639	
4	0	0	0	0	358	
5	0	0	0	0	637	
6	0	0	0	0	360	
7	0	0	0	0	633	
8	0	0	0	0	358	
9	0	0	0	0	646	
10	0	0	0	0	365	
11	0	0	0	0	653	
12	0	0	0	0	356	
13	0	0	0	0	644	
14	0	0	0	0	359	
15	0	0	0	0	649	
0	0	0	0	0	359	
1	0	0	0	0	640	
2	0	0	0	0	361	
3	0	0	0	0	641	
4	0	0	0	0	362	
5	0	0	0	0	643	
6	0	0	0	0	358	
7	0	0	0	0	642	
8	0	0	0	0	361	
9	0	0	0	0	637	
10	0	0	0	0	358	
11	0	0	0	0	644	
12	0	0	0	0	353	
13	0	0	0	0	644	
14	0	0	0	0	357	
15	0	0	0	0	642	
0	0	0	0	0	363	
1	0	0	0	0	635	
2	0	0	0	0	362	
3	0	0	0	0	636	
4	0	0	0	0	361	
5	0	0	0	0	639	
6	0	0	0	0	355	
7	0	0	0	0	643	
8	0	0	0	0	361	
9	0	0	0	0	640	
10	0	0	0	0	361	
11	0	0	0	0	640	
12	0	0	0	0	366	
13	0	0	0	0	637	
14	0	0	0	0	358	
15	0	0	0	0	639	
0	0	0	0	0	361	
1	0	0	0	0	646	
2	0	0	0	0	360	
3	0	0	0	0	643	
4	0	0	0	0	363	
5	0	0	0	0	643	
6	0	0	0	0	362	
7	0	0	0	0	637	
8	0	0	0	0	363	
9	0	0	0	0	644	
10	0	0	0	0	359	
11	0	0	0	0	643	
12	0	0	0	0	354	
13	0	0	0	0	640	
14	0	0	0	0	362	
15	0	0	0	0	641	
0	0	0	0	0	352	
1	0	0	0	0	641	
2	0	0	0	0	355	
3	0	0	0	0	642	
4	0	0	0	0	350	
5	0	0	0	0	645	
6	0	0	0	0	366	
7	0	0	0	0	639	
8	0	0	0	0	356	
9	0	0	0	0	633	
10	0	0	0	0	357	
11	0	0	0	0	633	
12	0	0	0	0	364	
13	0	0	0	0	644	
14	0	0	0	0	359	
15	0	0	0	0	640	
0	0	0	0	0	360	
1	0	0	0	0	647	
2	0	0	0	0	355	
3	0	0	0	0	645	
4	0	0	0	0	355	
5	0	0	0	0	647	
6	0	0	0	0	359	
7	0	0	0	0	639	
8	0	0	0	0	354	
9	0	0	0	0	637	
10	0	0	0	0	355	
11	0	0	0	0	641	
12	0	0	0	0	359	
13	0	0	0	0	646	
14	0	0	0	0	355	
15	0	0	0	0	638	
0	0	0	0	0	359	
1	0	0	0	0	640	
2	0	0	0	0	357	
3	0	0	0	0	639	
4	0	0	0	0	363	
5	0	0	0	0	644	
6	0	0	0	0	360	
7	0	0	0	0	644	
8	0	0	0	0	354	
9	0	0	0	0	645	
10	0	0	0	0	359	
11	0	0	0	0	639	
12	0	0	0	0	362	
13	0	0	0	0	644	
14	0	0	0	0	358	
15	0	0	0	0	640	
0	0	0	0	0	361	
1	0	0	0	0	639	
2	0	0	0	0	364	
3	0	0	0	0	640	
4	0	0	0	0	355	
5	0	0	0	0	641	
6	0	0	0	0	361	
7	0	0	0	0	637	
8	0	0	0	0	361	
9	0	0	0	0	645	
10	0	0	0	0	361	
11	0	0	0	0	640	
12	0	0	0	0	357	
13	0	0	0	0	641	
14	0	0	0	0	359	
15	0	0	0	0	641	
0	0	0	0	0	372	
1	0	0	0	0	647	
2	0	0	0	0	357	
3	0	0	0	0	636	
4	0	0	0	0	359	
5	0	0	0	0	640	
6	0	0	0	0	358	
7	0	0	0	0	642	
8	0	0	0	0	364	
9	0	0	0	0	640	
10	0	0	0	0	363	
11	0	0	0	0	638	
12	0	0	0	0	360	
13	0	0	0	0	640	
14	0	0	0	0	361	
15	0	0	0	0	639	
0	0	0	0	0	359	
1	0	0	0	0	639	
2	0	0	0	0	363	
3	0	0	0	0	637	
4	0	0	0	0	361	
5	0	0	0	0	641	
6	0	0	0	0	358	
7	0	0	0	0	640	
8	0	0	0	0	355	
9	0	0	0	0	637	
10	0	0	0	0	355	
11	0	0	0	0	637	
12	0	0	0	0	366	
13	0	0	0	0	644	
14	0	0	0	0	360	
15	0	0	0	0	649	
0	0	0	0	0	358	
1	0	0	0	0	636	
2	0	0	0	0	361	
3	0	0	0	0	644	
4	0	0	0	0	352	
5	0	0	0	0	640	
6	0	0	0	0	364	
7	0	0	0	0	648	
8	0	0	0	0	360	
9	0	0	0	0	644	
10	0	0	0	0	361	
11	0	0	0	0	641	
12	0	0	0	0	363	
13	0	0	0	0	640	
14	0	0	0	0	355	
15	0	0	0	0	635	
0	0	0	0	0	359	
1	0	0	0	0	644	
2	0	0	0	0	365	
3	0	0	0	0	642	
4	0	0	0	0	364	
5	0	0	0	0	643	
6	0	0	0	0	368	
7	0	0	0	0	643	
8	0	0	0	0	353	
9	0	0	0	0	643	
10	0	0	0	0	360	
11	0	0	0	0	644	
12	0	0	0	0	364	
13	0	0	0	0	636	
14	0	0	0	0	365	
15	0	0	0	0	644	
0	0	0	0	0	357	
1	0	0	0	0	643	
2	0	0	0	0	360	
3	0	0	0	0	649	
4	0	0	0	0	358	
5	0	0	0	0	642	
6	0	0	0	0	365	
7	0	0	0	0	637	
8	0	0	0	0	366	
9	0	0	0	0	644	
10	0	0	0	0	356	
11	0	0	0	0	644	
12	0	0	0	0	361	
13	0	0	0	0	639	
14	0	0	0	0	361	
15	0	0	0	0	633	
0	0	0	0	0	358	
1	0	0	0	0	636	
2	0	0	0	0	363	
3	0	0	0	0	642	
4	0	0	0	0	357	
5	0	0	0	0	639	
6	0	0	0	0	367	
7	0	0	0	0	636	
8	0	0	0	0	362	
9	0	0	0	0	638	
10	0	0	0	0	363	
11	0	0	0	0	635	
12	0	0	0	0	365	
13	0	0	0	0	643	
14	0	0	0	0	359	
15	0	0	0	0	638	
0	0	0	0	0	364	
1	0	0	0	0	642	
2	0	0	0	0	364	
3	0	0	0	0	646	
4	0	0	0	0	360	
5	0	0	0	0	639	
6	0	0	0	0	355	
7	0	0	0	0	646	
8	0	0	0	0	359	
9	0	0	0	0	642	
10	0	0	0	0	359	
11	0	0	0	0	648	
12	0	0	0	0	360	
13	0	0	0	0	639	
14	0	0	0	0	356	
15	0	0	0	0	640	
0	0	0	0	0	353	
1	0	0	0	0	645	
2	0	0	0	0	364	
3	0	0	0	0	645	
4	0	0	0	0	355	
5	0	0	0	0	646	
6	0	0	0	0	360	
7	0	0	0	0	641	
8	0	0	0	0	363	
9	0	0	0	0	645	
10	0	0	0	0	367	
11	0	0	0	0	641	
12	0	0	0	0	369	
13	0	0	0	0	636	
14	0	0	0	0	354	
15	0	0	0	0	646	
0	0	0	0	0	360	
1	0	0	0	0	637	
2	0	0	0	0	354	
3	0	0	0	0	643	
4	0	0	0	0	363	
5	0	0	0	0	638	
6	0	0	0	0	356	
7	0	0	0	0	646	
8	0	0	0	0	356	
9	0	0	0	0	637	
10	0	0	0	0	364	
11	0	0	0	0	642	
12	0	0	0	0	360	
13	0	0	0	0	638	
14	0	0	0	0	362	
15	0	0	0	0	647	
0	0	0	0	0	353	
1	0	0	0	0	645	
2	0	0	0	0	359	
3	0	0	0	0	635	
