# OpenSignals Text File Format. Version 1
# {"84:BA:20:5E:FF:7F": {"position": 0, "device": "bitalino_rev", "device name": "84:BA:20:5E:FF:7F", "device connection": "BTH84:BA:20:5E:FF:7F", "sampling rate": 100, "resolution": [4, 1, 1, 1, 1, 10], "firmware version": 1282, "comments": "", "keywords": "", "mode": 0, "sync interval": 2, "date": "2024-3-6", "time": "19:3:37.23", "channels": [1], "sensor": ["EMGBITREV"], "label": ["A1"], "column": ["nSeq", "I1", "I2", "O1", "O2", "A1"], "special": [{}], "digital IO": [0, 0, 1, 1]}}
# EndOfHeader
0	0	0	0	0	497	
1	0	0	0	0	545	
2	0	0	0	0	507	
3	0	0	0	0	545	
4	0	0	0	0	494	
5	0	0	0	0	545	
6	0	0	0	0	512	
7	0	0	0	0	542	
8	0	0	0	0	512	
9	0	0	0	0	543	
10	0	0	0	0	509	
11	0	0	0	0	551	
12	0	0	0	0	511	
13	0	0	0	0	542	
14	0	0	0	0	504	
15	0	0	0	0	542	
0	0	0	0	0	512	
1	0	0	0	0	543	
2	0	0	0	0	506	
3	0	0	0	0	540	
4	0	0	0	0	512	
5	0	0	0	0	540	
6	0	0	0	0	515	
7	0	0	0	0	531	
8	0	0	0	0	509	
9	0	0	0	0	544	
10	0	0	0	0	509	
11	0	0	0	0	540	
12	0	0	0	0	511	
13	0	0	0	0	535	
14	0	0	0	0	508	
15	0	0	0	0	541	
0	0	0	0	0	508	
1	0	0	0	0	543	
2	0	0	0	0	515	
3	0	0	0	0	537	
4	0	0	0	0	508	
5	0	0	0	0	546	
6	0	0	0	0	511	
7	0	0	0	0	544	
8	0	0	0	0	512	
9	0	0	0	0	537	
10	0	0	0	0	511	
11	0	0	0	0	540	
12	0	0	0	0	517	
13	0	0	0	0	538	
14	0	0	0	0	512	
15	0	0	0	0	539	
0	0	0	0	0	520	
1	0	0	0	0	541	
2	0	0	0	0	523	
3	0	0	0	0	550	
4	0	0	0	0	508	
5	0	0	0	0	539	
6	0	0	0	0	510	
7	0	0	0	0	540	
8	0	0	0	0	520	
9	0	0	0	0	542	
10	0	0	0	0	519	
11	0	0	0	0	540	
12	0	0	0	0	515	
13	0	0	0	0	540	
14	0	0	0	0	515	
15	0	0	0	0	536	
0	0	0	0	0	512	
1	0	0	0	0	542	
2	0	0	0	0	521	
3	0	0	0	0	545	
4	0	0	0	0	518	
5	0	0	0	0	541	
6	0	0	0	0	519	
7	0	0	0	0	534	
8	0	0	0	0	526	
9	0	0	0	0	532	
10	0	0	0	0	516	
11	0	0	0	0	540	
12	0	0	0	0	524	
13	0	0	0	0	535	
14	0	0	0	0	516	
15	0	0	0	0	538	
0	0	0	0	0	517	
1	0	0	0	0	540	
2	0	0	0	0	521	
3	0	0	0	0	537	
4	0	0	0	0	514	
5	0	0	0	0	541	
6	0	0	0	0	521	
7	0	0	0	0	533	
8	0	0	0	0	518	
9	0	0	0	0	533	
10	0	0	0	0	514	
11	0	0	0	0	540	
12	0	0	0	0	522	
13	0	0	0	0	538	
14	0	0	0	0	522	
15	0	0	0	0	531	
0	0	0	0	0	518	
1	0	0	0	0	535	
2	0	0	0	0	515	
3	0	0	0	0	537	
4	0	0	0	0	524	
5	0	0	0	0	542	
6	0	0	0	0	527	
7	0	0	0	0	531	
8	0	0	0	0	521	
9	0	0	0	0	529	
10	0	0	0	0	521	
11	0	0	0	0	538	
12	0	0	0	0	520	
13	0	0	0	0	537	
14	0	0	0	0	521	
15	0	0	0	0	536	
0	0	0	0	0	523	
1	0	0	0	0	527	
2	0	0	0	0	521	
3	0	0	0	0	532	
4	0	0	0	0	519	
5	0	0	0	0	537	
6	0	0	0	0	527	
7	0	0	0	0	536	
8	0	0	0	0	526	
9	0	0	0	0	536	
10	0	0	0	0	530	
11	0	0	0	0	535	
12	0	0	0	0	527	
13	0	0	0	0	532	
14	0	0	0	0	529	
15	0	0	0	0	534	
0	0	0	0	0	526	
1	0	0	0	0	539	
2	0	0	0	0	525	
3	0	0	0	0	539	
4	0	0	0	0	524	
5	0	0	0	0	536	
6	0	0	0	0	525	
7	0	0	0	0	531	
8	0	0	0	0	519	
9	0	0	0	0	538	
10	0	0	0	0	521	
11	0	0	0	0	536	
12	0	0	0	0	524	
13	0	0	0	0	528	
14	0	0	0	0	523	
15	0	0	0	0	537	
0	0	0	0	0	529	
1	0	0	0	0	533	
2	0	0	0	0	529	
3	0	0	0	0	531	
4	0	0	0	0	526	
5	0	0	0	0	534	
6	0	0	0	0	531	
7	0	0	0	0	525	
8	0	0	0	0	525	
9	0	0	0	0	534	
10	0	0	0	0	538	
11	0	0	0	0	534	
12	0	0	0	0	524	
13	0	0	0	0	535	
14	0	0	0	0	534	
15	0	0	0	0	540	
0	0	0	0	0	527	
1	0	0	0	0	534	
2	0	0	0	0	531	
3	0	0	0	0	535	
4	0	0	0	0	538	
5	0	0	0	0	535	
6	0	0	0	0	525	
7	0	0	0	0	528	
8	0	0	0	0	525	
9	0	0	0	0	532	
10	0	0	0	0	536	
11	0	0	0	0	524	
12	0	0	0	0	530	
13	0	0	0	0	531	
14	0	0	0	0	532	
15	0	0	0	0	535	
0	0	0	0	0	529	
1	0	0	0	0	537	
2	0	0	0	0	530	
3	0	0	0	0	531	
4	0	0	0	0	531	
5	0	0	0	0	533	
6	0	0	0	0	526	
7	0	0	0	0	529	
8	0	0	0	0	534	
9	0	0	0	0	525	
10	0	0	0	0	531	
11	0	0	0	0	532	
12	0	0	0	0	534	
13	0	0	0	0	529	
14	0	0	0	0	533	
15	0	0	0	0	529	
0	0	0	0	0	529	
1	0	0	0	0	535	
2	0	0	0	0	531	
3	0	0	0	0	528	
4	0	0	0	0	530	
5	0	0	0	0	531	
6	0	0	0	0	529	
7	0	0	0	0	527	
8	0	0	0	0	534	
9	0	0	0	0	521	
10	0	0	0	0	537	
11	0	0	0	0	536	
12	0	0	0	0	531	
13	0	0	0	0	524	
14	0	0	0	0	537	
15	0	0	0	0	527	
0	0	0	0	0	531	
1	0	0	0	0	537	
2	0	0	0	0	526	
3	0	0	0	0	529	
4	0	0	0	0	534	
5	0	0	0	0	526	
6	0	0	0	0	537	
7	0	0	0	0	532	
8	0	0	0	0	532	
9	0	0	0	0	529	
10	0	0	0	0	531	
11	0	0	0	0	523	
12	0	0	0	0	537	
13	0	0	0	0	527	
14	0	0	0	0	531	
15	0	0	0	0	531	
0	0	0	0	0	536	
1	0	0	0	0	527	
2	0	0	0	0	547	
3	0	0	0	0	528	
4	0	0	0	0	533	
5	0	0	0	0	529	
6	0	0	0	0	535	
7	0	0	0	0	527	
8	0	0	0	0	532	
9	0	0	0	0	529	
10	0	0	0	0	529	
11	0	0	0	0	526	
12	0	0	0	0	531	
13	0	0	0	0	527	
14	0	0	0	0	535	
15	0	0	0	0	531	
0	0	0	0	0	533	
1	0	0	0	0	530	
2	0	0	0	0	532	
3	0	0	0	0	525	
4	0	0	0	0	524	
5	0	0	0	0	525	
6	0	0	0	0	538	
7	0	0	0	0	528	
8	0	0	0	0	535	
9	0	0	0	0	523	
10	0	0	0	0	538	
11	0	0	0	0	528	
12	0	0	0	0	539	
13	0	0	0	0	531	
14	0	0	0	0	536	
15	0	0	0	0	533	
0	0	0	0	0	528	
1	0	0	0	0	534	
2	0	0	0	0	540	
3	0	0	0	0	528	
4	0	0	0	0	542	
5	0	0	0	0	531	
6	0	0	0	0	540	
7	0	0	0	0	533	
8	0	0	0	0	534	
9	0	0	0	0	523	
10	0	0	0	0	533	
11	0	0	0	0	536	
12	0	0	0	0	539	
13	0	0	0	0	527	
14	0	0	0	0	540	
15	0	0	0	0	524	
0	0	0	0	0	544	
1	0	0	0	0	526	
2	0	0	0	0	539	
3	0	0	0	0	531	
4	0	0	0	0	534	
5	0	0	0	0	524	
6	0	0	0	0	542	
7	0	0	0	0	518	
8	0	0	0	0	543	
9	0	0	0	0	534	
10	0	0	0	0	534	
11	0	0	0	0	518	
12	0	0	0	0	537	
13	0	0	0	0	522	
14	0	0	0	0	543	
15	0	0	0	0	523	
0	0	0	0	0	541	
1	0	0	0	0	523	
2	0	0	0	0	538	
3	0	0	0	0	523	
4	0	0	0	0	539	
5	0	0	0	0	531	
6	0	0	0	0	536	
7	0	0	0	0	527	
8	0	0	0	0	537	
9	0	0	0	0	530	
10	0	0	0	0	543	
11	0	0	0	0	524	
12	0	0	0	0	538	
13	0	0	0	0	531	
14	0	0	0	0	540	
15	0	0	0	0	526	
0	0	0	0	0	535	
1	0	0	0	0	525	
2	0	0	0	0	536	
3	0	0	0	0	528	
4	0	0	0	0	540	
5	0	0	0	0	524	
6	0	0	0	0	540	
7	0	0	0	0	524	
8	0	0	0	0	542	
9	0	0	0	0	527	
10	0	0	0	0	542	
11	0	0	0	0	523	
12	0	0	0	0	537	
13	0	0	0	0	528	
14	0	0	0	0	536	
15	0	0	0	0	523	
0	0	0	0	0	540	
1	0	0	0	0	521	
2	0	0	0	0	546	
3	0	0	0	0	525	
4	0	0	0	0	544	
5	0	0	0	0	525	
6	0	0	0	0	541	
7	0	0	0	0	525	
8	0	0	0	0	539	
9	0	0	0	0	524	
10	0	0	0	0	542	
11	0	0	0	0	515	
12	0	0	0	0	540	
13	0	0	0	0	529	
14	0	0	0	0	539	
15	0	0	0	0	527	
0	0	0	0	0	542	
1	0	0	0	0	520	
2	0	0	0	0	541	
3	0	0	0	0	523	
4	0	0	0	0	542	
5	0	0	0	0	524	
6	0	0	0	0	546	
7	0	0	0	0	524	
8	0	0	0	0	538	
9	0	0	0	0	524	
10	0	0	0	0	546	
11	0	0	0	0	519	
12	0	0	0	0	543	
13	0	0	0	0	522	
14	0	0	0	0	546	
15	0	0	0	0	527	
0	0	0	0	0	535	
1	0	0	0	0	529	
2	0	0	0	0	537	
3	0	0	0	0	522	
4	0	0	0	0	537	
5	0	0	0	0	530	
6	0	0	0	0	542	
7	0	0	0	0	523	
8	0	0	0	0	542	
9	0	0	0	0	525	
10	0	0	0	0	540	
11	0	0	0	0	532	
12	0	0	0	0	541	
13	0	0	0	0	527	
14	0	0	0	0	544	
15	0	0	0	0	523	
0	0	0	0	0	537	
1	0	0	0	0	525	
2	0	0	0	0	542	
3	0	0	0	0	519	
4	0	0	0	0	550	
5	0	0	0	0	522	
6	0	0	0	0	544	
7	0	0	0	0	524	
8	0	0	0	0	541	
9	0	0	0	0	527	
10	0	0	0	0	543	
11	0	0	0	0	529	
12	0	0	0	0	536	
13	0	0	0	0	523	
14	0	0	0	0	544	
15	0	0	0	0	521	
0	0	0	0	0	541	
1	0	0	0	0	526	
2	0	0	0	0	540	
3	0	0	0	0	524	
4	0	0	0	0	539	
5	0	0	0	0	521	
6	0	0	0	0	546	
7	0	0	0	0	526	
8	0	0	0	0	541	
9	0	0	0	0	525	
10	0	0	0	0	541	
11	0	0	0	0	527	
12	0	0	0	0	541	
13	0	0	0	0	525	
14	0	0	0	0	549	
15	0	0	0	0	515	
0	0	0	0	0	546	
1	0	0	0	0	527	
2	0	0	0	0	539	
3	0	0	0	0	524	
4	0	0	0	0	543	
5	0	0	0	0	526	
6	0	0	0	0	543	
7	0	0	0	0	522	
8	0	0	0	0	543	
9	0	0	0	0	518	
10	0	0	0	0	543	
11	0	0	0	0	521	
12	0	0	0	0	543	
13	0	0	0	0	519	
14	0	0	0	0	545	
15	0	0	0	0	523	
0	0	0	0	0	538	
1	0	0	0	0	524	
2	0	0	0	0	543	
3	0	0	0	0	521	
4	0	0	0	0	542	
5	0	0	0	0	522	
6	0	0	0	0	545	
7	0	0	0	0	519	
8	0	0	0	0	551	
9	0	0	0	0	525	
10	0	0	0	0	540	
11	0	0	0	0	530	
12	0	0	0	0	543	
13	0	0	0	0	520	
14	0	0	0	0	545	
15	0	0	0	0	519	
0	0	0	0	0	544	
1	0	0	0	0	517	
2	0	0	0	0	542	
3	0	0	0	0	522	
4	0	0	0	0	548	
5	0	0	0	0	524	
6	0	0	0	0	549	
7	0	0	0	0	530	
8	0	0	0	0	547	
9	0	0	0	0	522	
10	0	0	0	0	548	
11	0	0	0	0	520	
12	0	0	0	0	549	
13	0	0	0	0	520	
14	0	0	0	0	545	
15	0	0	0	0	516	
0	0	0	0	0	548	
1	0	0	0	0	527	
2	0	0	0	0	550	
3	0	0	0	0	518	
4	0	0	0	0	550	
5	0	0	0	0	520	
6	0	0	0	0	544	
7	0	0	0	0	524	
8	0	0	0	0	551	
9	0	0	0	0	519	
10	0	0	0	0	548	
11	0	0	0	0	518	
12	0	0	0	0	553	
13	0	0	0	0	524	
14	0	0	0	0	552	
15	0	0	0	0	521	
0	0	0	0	0	549	
1	0	0	0	0	517	
2	0	0	0	0	546	
3	0	0	0	0	518	
4	0	0	0	0	551	
5	0	0	0	0	526	
6	0	0	0	0	546	
7	0	0	0	0	522	
8	0	0	0	0	553	
9	0	0	0	0	514	
10	0	0	0	0	550	
11	0	0	0	0	525	
12	0	0	0	0	547	
13	0	0	0	0	515	
14	0	0	0	0	553	
15	0	0	0	0	521	
0	0	0	0	0	552	
1	0	0	0	0	516	
2	0	0	0	0	553	
3	0	0	0	0	524	
4	0	0	0	0	554	
5	0	0	0	0	520	
6	0	0	0	0	554	
7	0	0	0	0	526	
8	0	0	0	0	553	
9	0	0	0	0	515	
10	0	0	0	0	551	
11	0	0	0	0	524	
12	0	0	0	0	551	
13	0	0	0	0	520	
14	0	0	0	0	550	
15	0	0	0	0	516	
0	0	0	0	0	553	
1	0	0	0	0	522	
2	0	0	0	0	554	
3	0	0	0	0	516	
4	0	0	0	0	551	
5	0	0	0	0	520	
6	0	0	0	0	551	
7	0	0	0	0	512	
8	0	0	0	0	557	
9	0	0	0	0	514	
10	0	0	0	0	551	
11	0	0	0	0	511	
12	0	0	0	0	553	
13	0	0	0	0	517	
14	0	0	0	0	556	
15	0	0	0	0	516	
0	0	0	0	0	555	
1	0	0	0	0	519	
2	0	0	0	0	558	
3	0	0	0	0	518	
4	0	0	0	0	563	
5	0	0	0	0	512	
6	0	0	0	0	551	
7	0	0	0	0	519	
8	0	0	0	0	553	
9	0	0	0	0	508	
10	0	0	0	0	555	
11	0	0	0	0	515	
12	0	0	0	0	559	
13	0	0	0	0	519	
14	0	0	0	0	560	
15	0	0	0	0	516	
0	0	0	0	0	557	
1	0	0	0	0	521	
2	0	0	0	0	553	
3	0	0	0	0	511	
4	0	0	0	0	563	
5	0	0	0	0	510	
6	0	0	0	0	551	
7	0	0	0	0	512	
8	0	0	0	0	553	
9	0	0	0	0	509	
10	0	0	0	0	556	
11	0	0	0	0	508	
12	0	0	0	0	560	
13	0	0	0	0	515	
14	0	0	0	0	559	
15	0	0	0	0	516	
0	0	0	0	0	557	
1	0	0	0	0	511	
2	0	0	0	0	562	
3	0	0	0	0	515	
4	0	0	0	0	561	
5	0	0	0	0	515	
6	0	0	0	0	556	
7	0	0	0	0	511	
8	0	0	0	0	556	
9	0	0	0	0	510	
10	0	0	0	0	560	
11	0	0	0	0	516	
12	0	0	0	0	556	
13	0	0	0	0	514	
14	0	0	0	0	561	
15	0	0	0	0	509	
0	0	0	0	0	563	
1	0	0	0	0	513	
2	0	0	0	0	566	
3	0	0	0	0	510	
4	0	0	0	0	563	
5	0	0	0	0	513	
6	0	0	0	0	564	
7	0	0	0	0	515	
8	0	0	0	0	572	
9	0	0	0	0	507	
10	0	0	0	0	566	
11	0	0	0	0	508	
12	0	0	0	0	562	
13	0	0	0	0	510	
14	0	0	0	0	557	
15	0	0	0	0	506	
0	0	0	0	0	564	
1	0	0	0	0	509	
2	0	0	0	0	572	
3	0	0	0	0	502	
4	0	0	0	0	565	
5	0	0	0	0	515	
6	0	0	0	0	570	
7	0	0	0	0	505	
8	0	0	0	0	564	
9	0	0	0	0	502	
10	0	0	0	0	567	
11	0	0	0	0	511	
12	0	0	0	0	574	
13	0	0	0	0	511	
14	0	0	0	0	567	
15	0	0	0	0	500	
0	0	0	0	0	564	
1	0	0	0	0	504	
2	0	0	0	0	570	
3	0	0	0	0	508	
4	0	0	0	0	568	
5	0	0	0	0	501	
6	0	0	0	0	569	
7	0	0	0	0	502	
8	0	0	0	0	574	
9	0	0	0	0	507	
10	0	0	0	0	573	
11	0	0	0	0	506	
12	0	0	0	0	571	
13	0	0	0	0	508	
14	0	0	0	0	565	
15	0	0	0	0	498	
0	0	0	0	0	568	
1	0	0	0	0	511	
2	0	0	0	0	566	
3	0	0	0	0	504	
4	0	0	0	0	572	
5	0	0	0	0	500	
6	0	0	0	0	565	
7	0	0	0	0	500	
8	0	0	0	0	576	
9	0	0	0	0	501	
10	0	0	0	0	568	
11	0	0	0	0	507	
12	0	0	0	0	575	
13	0	0	0	0	501	
14	0	0	0	0	565	
15	0	0	0	0	507	
0	0	0	0	0	570	
1	0	0	0	0	505	
2	0	0	0	0	578	
3	0	0	0	0	504	
4	0	0	0	0	574	
5	0	0	0	0	497	
6	0	0	0	0	574	
7	0	0	0	0	508	
8	0	0	0	0	573	
9	0	0	0	0	504	
10	0	0	0	0	573	
11	0	0	0	0	505	
12	0	0	0	0	573	
13	0	0	0	0	506	
14	0	0	0	0	571	
15	0	0	0	0	507	
0	0	0	0	0	576	
1	0	0	0	0	499	
2	0	0	0	0	576	
3	0	0	0	0	508	
4	0	0	0	0	576	
5	0	0	0	0	505	
6	0	0	0	0	572	
7	0	0	0	0	500	
8	0	0	0	0	577	
9	0	0	0	0	499	
10	0	0	0	0	576	
11	0	0	0	0	499	
12	0	0	0	0	574	
13	0	0	0	0	500	
14	0	0	0	0	576	
15	0	0	0	0	504	
0	0	0	0	0	575	
1	0	0	0	0	505	
2	0	0	0	0	575	
3	0	0	0	0	498	
4	0	0	0	0	581	
5	0	0	0	0	498	
6	0	0	0	0	574	
7	0	0	0	0	502	
8	0	0	0	0	568	
9	0	0	0	0	498	
10	0	0	0	0	577	
11	0	0	0	0	501	
12	0	0	0	0	572	
13	0	0	0	0	503	
14	0	0	0	0	579	
15	0	0	0	0	505	
0	0	0	0	0	575	
1	0	0	0	0	496	
2	0	0	0	0	575	
3	0	0	0	0	509	
4	0	0	0	0	574	
5	0	0	0	0	508	
6	0	0	0	0	579	
7	0	0	0	0	508	
8	0	0	0	0	579	
9	0	0	0	0	502	
10	0	0	0	0	582	
11	0	0	0	0	495	
12	0	0	0	0	578	
13	0	0	0	0	505	
14	0	0	0	0	579	
15	0	0	0	0	492	
0	0	0	0	0	579	
1	0	0	0	0	501	
2	0	0	0	0	577	
3	0	0	0	0	497	
4	0	0	0	0	581	
5	0	0	0	0	503	
6	0	0	0	0	579	
7	0	0	0	0	507	
8	0	0	0	0	575	
9	0	0	0	0	504	
10	0	0	0	0	575	
11	0	0	0	0	501	
12	0	0	0	0	571	
13	0	0	0	0	499	
14	0	0	0	0	576	
15	0	0	0	0	499	
0	0	0	0	0	575	
1	0	0	0	0	496	
2	0	0	0	0	583	
3	0	0	0	0	494	
4	0	0	0	0	581	
5	0	0	0	0	496	
6	0	0	0	0	581	
7	0	0	0	0	498	
8	0	0	0	0	579	
9	0	0	0	0	496	
10	0	0	0	0	587	
11	0	0	0	0	500	
12	0	0	0	0	574	
13	0	0	0	0	495	
14	0	0	0	0	585	
15	0	0	0	0	499	
0	0	0	0	0	584	
1	0	0	0	0	499	
2	0	0	0	0	580	
3	0	0	0	0	497	
4	0	0	0	0	583	
5	0	0	0	0	495	
6	0	0	0	0	587	
7	0	0	0	0	499	
8	0	0	0	0	579	
9	0	0	0	0	501	
10	0	0	0	0	581	
11	0	0	0	0	503	
12	0	0	0	0	577	
13	0	0	0	0	496	
14	0	0	0	0	583	
15	0	0	0	0	496	
0	0	0	0	0	578	
1	0	0	0	0	501	
2	0	0	0	0	583	
3	0	0	0	0	493	
4	0	0	0	0	583	
5	0	0	0	0	496	
6	0	0	0	0	580	
7	0	0	0	0	497	
8	0	0	0	0	588	
9	0	0	0	0	499	
10	0	0	0	0	584	
11	0	0	0	0	494	
12	0	0	0	0	593	
13	0	0	0	0	489	
14	0	0	0	0	588	
15	0	0	0	0	494	
0	0	0	0	0	578	
1	0	0	0	0	496	
2	0	0	0	0	588	
3	0	0	0	0	490	
4	0	0	0	0	585	
5	0	0	0	0	492	
6	0	0	0	0	583	
7	0	0	0	0	492	
8	0	0	0	0	588	
9	0	0	0	0	496	
10	0	0	0	0	571	
11	0	0	0	0	494	
12	0	0	0	0	591	
13	0	0	0	0	486	
14	0	0	0	0	592	
15	0	0	0	0	488	
0	0	0	0	0	574	
1	0	0	0	0	489	
2	0	0	0	0	591	
3	0	0	0	0	494	
4	0	0	0	0	587	
5	0	0	0	0	487	
6	0	0	0	0	590	
7	0	0	0	0	489	
8	0	0	0	0	588	
9	0	0	0	0	486	
10	0	0	0	0	580	
11	0	0	0	0	491	
12	0	0	0	0	589	
13	0	0	0	0	483	
14	0	0	0	0	586	
15	0	0	0	0	495	
0	0	0	0	0	592	
1	0	0	0	0	487	
2	0	0	0	0	599	
3	0	0	0	0	481	
4	0	0	0	0	574	
5	0	0	0	0	489	
6	0	0	0	0	591	
7	0	0	0	0	481	
8	0	0	0	0	588	
9	0	0	0	0	487	
10	0	0	0	0	581	
11	0	0	0	0	488	
12	0	0	0	0	590	
13	0	0	0	0	484	
14	0	0	0	0	587	
15	0	0	0	0	483	
0	0	0	0	0	590	
1	0	0	0	0	481	
2	0	0	0	0	591	
3	0	0	0	0	484	
4	0	0	0	0	576	
5	0	0	0	0	486	
6	0	0	0	0	595	
7	0	0	0	0	481	
8	0	0	0	0	588	
9	0	0	0	0	488	
10	0	0	0	0	589	
11	0	0	0	0	486	
12	0	0	0	0	595	
13	0	0	0	0	486	
14	0	0	0	0	588	
15	0	0	0	0	487	
0	0	0	0	0	596	
1	0	0	0	0	482	
2	0	0	0	0	597	
3	0	0	0	0	482	
4	0	0	0	0	579	
5	0	0	0	0	486	
6	0	0	0	0	593	
7	0	0	0	0	478	
8	0	0	0	0	591	
9	0	0	0	0	484	
10	0	0	0	0	596	
11	0	0	0	0	481	
12	0	0	0	0	600	
13	0	0	0	0	483	
14	0	0	0	0	585	
15	0	0	0	0	480	
0	0	0	0	0	596	
1	0	0	0	0	479	
2	0	0	0	0	596	
3	0	0	0	0	473	
4	0	0	0	0	589	
5	0	0	0	0	480	
6	0	0	0	0	603	
7	0	0	0	0	487	
8	0	0	0	0	587	
9	0	0	0	0	477	
10	0	0	0	0	595	
11	0	0	0	0	472	
12	0	0	0	0	598	
13	0	0	0	0	478	
14	0	0	0	0	579	
15	0	0	0	0	479	
0	0	0	0	0	597	
1	0	0	0	0	481	
2	0	0	0	0	588	
3	0	0	0	0	476	
4	0	0	0	0	598	
5	0	0	0	0	476	
6	0	0	0	0	602	
7	0	0	0	0	480	
8	0	0	0	0	585	
9	0	0	0	0	479	
10	0	0	0	0	599	
11	0	0	0	0	477	
12	0	0	0	0	595	
13	0	0	0	0	473	
14	0	0	0	0	594	
15	0	0	0	0	476	
0	0	0	0	0	597	
1	0	0	0	0	478	
2	0	0	0	0	579	
3	0	0	0	0	470	
4	0	0	0	0	594	
5	0	0	0	0	475	
6	0	0	0	0	594	
7	0	0	0	0	473	
8	0	0	0	0	576	
9	0	0	0	0	473	
10	0	0	0	0	597	
11	0	0	0	0	472	
12	0	0	0	0	588	
13	0	0	0	0	483	
14	0	0	0	0	596	
15	0	0	0	0	475	
0	0	0	0	0	601	
1	0	0	0	0	466	
2	0	0	0	0	576	
3	0	0	0	0	472	
4	0	0	0	0	596	
5	0	0	0	0	467	
6	0	0	0	0	597	
7	0	0	0	0	472	
8	0	0	0	0	592	
9	0	0	0	0	474	
10	0	0	0	0	592	
11	0	0	0	0	473	
12	0	0	0	0	593	
13	0	0	0	0	469	
14	0	0	0	0	602	
15	0	0	0	0	461	
0	0	0	0	0	592	
1	0	0	0	0	477	
2	0	0	0	0	572	
3	0	0	0	0	470	
4	0	0	0	0	605	
5	0	0	0	0	472	
6	0	0	0	0	591	
7	0	0	0	0	473	
8	0	0	0	0	590	
9	0	0	0	0	470	
10	0	0	0	0	591	
11	0	0	0	0	471	
12	0	0	0	0	578	
13	0	0	0	0	472	
14	0	0	0	0	596	
15	0	0	0	0	469	
0	0	0	0	0	583	
1	0	0	0	0	467	
2	0	0	0	0	586	
3	0	0	0	0	471	
4	0	0	0	0	584	
5	0	0	0	0	469	
6	0	0	0	0	576	
7	0	0	0	0	463	
8	0	0	0	0	583	
9	0	0	0	0	472	
10	0	0	0	0	576	
11	0	0	0	0	473	
12	0	0	0	0	563	
13	0	0	0	0	465	
14	0	0	0	0	585	
15	0	0	0	0	472	
0	0	0	0	0	570	
1	0	0	0	0	470	
2	0	0	0	0	577	
3	0	0	0	0	470	
4	0	0	0	0	575	
5	0	0	0	0	471	
6	0	0	0	0	563	
7	0	0	0	0	468	
8	0	0	0	0	577	
9	0	0	0	0	465	
10	0	0	0	0	571	
11	0	0	0	0	474	
12	0	0	0	0	573	
13	0	0	0	0	470	
14	0	0	0	0	579	
15	0	0	0	0	467	
0	0	0	0	0	560	
1	0	0	0	0	468	
2	0	0	0	0	583	
3	0	0	0	0	461	
4	0	0	0	0	570	
5	0	0	0	0	471	
6	0	0	0	0	556	
7	0	0	0	0	471	
8	0	0	0	0	575	
9	0	0	0	0	473	
10	0	0	0	0	568	
11	0	0	0	0	473	
12	0	0	0	0	582	
13	0	0	0	0	466	
14	0	0	0	0	575	
15	0	0	0	0	477	
0	0	0	0	0	559	
1	0	0	0	0	470	
2	0	0	0	0	579	
3	0	0	0	0	460	
4	0	0	0	0	564	
5	0	0	0	0	469	
6	0	0	0	0	574	
7	0	0	0	0	464	
8	0	0	0	0	579	
9	0	0	0	0	470	
10	0	0	0	0	556	
11	0	0	0	0	456	
12	0	0	0	0	582	
13	0	0	0	0	468	
14	0	0	0	0	572	
15	0	0	0	0	467	
0	0	0	0	0	570	
1	0	0	0	0	475	
2	0	0	0	0	573	
3	0	0	0	0	472	
4	0	0	0	0	565	
5	0	0	0	0	463	
6	0	0	0	0	574	
7	0	0	0	0	463	
8	0	0	0	0	574	
9	0	0	0	0	468	
10	0	0	0	0	564	
11	0	0	0	0	461	
12	0	0	0	0	574	
13	0	0	0	0	473	
14	0	0	0	0	570	
15	0	0	0	0	462	
0	0	0	0	0	575	
1	0	0	0	0	465	
2	0	0	0	0	566	
3	0	0	0	0	461	
4	0	0	0	0	563	
5	0	0	0	0	459	
6	0	0	0	0	574	
7	0	0	0	0	457	
8	0	0	0	0	573	
9	0	0	0	0	462	
10	0	0	0	0	573	
11	0	0	0	0	455	
12	0	0	0	0	578	
13	0	0	0	0	461	
14	0	0	0	0	566	
15	0	0	0	0	454	
0	0	0	0	0	577	
1	0	0	0	0	456	
2	0	0	0	0	576	
3	0	0	0	0	463	
4	0	0	0	0	559	
5	0	0	0	0	459	
6	0	0	0	0	590	
7	0	0	0	0	453	
8	0	0	0	0	573	
9	0	0	0	0	455	
10	0	0	0	0	579	
11	0	0	0	0	450	
12	0	0	0	0	584	
13	0	0	0	0	451	
14	0	0	0	0	565	
15	0	0	0	0	446	
0	0	0	0	0	580	
1	0	0	0	0	445	
2	0	0	0	0	576	
3	0	0	0	0	454	
4	0	0	0	0	584	
5	0	0	0	0	457	
6	0	0	0	0	583	
7	0	0	0	0	451	
8	0	0	0	0	569	
9	0	0	0	0	449	
10	0	0	0	0	582	
11	0	0	0	0	449	
12	0	0	0	0	589	
13	0	0	0	0	445	
14	0	0	0	0	570	
15	0	0	0	0	451	
0	0	0	0	0	602	
1	0	0	0	0	450	
2	0	0	0	0	567	
3	0	0	0	0	453	
4	0	0	0	0	580	
5	0	0	0	0	448	
6	0	0	0	0	593	
7	0	0	0	0	455	
8	0	0	0	0	563	
9	0	0	0	0	456	
10	0	0	0	0	582	
11	0	0	0	0	444	
12	0	0	0	0	572	
13	0	0	0	0	452	
14	0	0	0	0	584	
15	0	0	0	0	447	
0	0	0	0	0	586	
1	0	0	0	0	451	
2	0	0	0	0	568	
3	0	0	0	0	446	
4	0	0	0	0	588	
5	0	0	0	0	444	
6	0	0	0	0	571	
7	0	0	0	0	454	
8	0	0	0	0	560	
9	0	0	0	0	450	
10	0	0	0	0	593	
11	0	0	0	0	448	
12	0	0	0	0	570	
13	0	0	0	0	447	
14	0	0	0	0	586	
15	0	0	0	0	449	
0	0	0	0	0	577	
1	0	0	0	0	452	
2	0	0	0	0	568	
3	0	0	0	0	445	
4	0	0	0	0	579	
5	0	0	0	0	448	
6	0	0	0	0	559	
7	0	0	0	0	450	
8	0	0	0	0	585	
9	0	0	0	0	451	
10	0	0	0	0	580	
11	0	0	0	0	449	
12	0	0	0	0	569	
13	0	0	0	0	454	
14	0	0	0	0	581	
15	0	0	0	0	442	
0	0	0	0	0	574	
1	0	0	0	0	450	
2	0	0	0	0	585	
3	0	0	0	0	448	
4	0	0	0	0	583	
5	0	0	0	0	450	
6	0	0	0	0	568	
7	0	0	0	0	446	
8	0	0	0	0	586	
9	0	0	0	0	442	
10	0	0	0	0	577	
11	0	0	0	0	453	
12	0	0	0	0	570	
13	0	0	0	0	446	
14	0	0	0	0	579	
15	0	0	0	0	434	
0	0	0	0	0	568	
1	0	0	0	0	451	
2	0	0	0	0	586	
3	0	0	0	0	443	
4	0	0	0	0	580	
5	0	0	0	0	442	
6	0	0	0	0	568	
7	0	0	0	0	445	
8	0	0	0	0	584	
9	0	0	0	0	447	
10	0	0	0	0	572	
11	0	0	0	0	440	
12	0	0	0	0	585	
13	0	0	0	0	443	
14	0	0	0	0	574	
15	0	0	0	0	441	
0	0	0	0	0	559	
1	0	0	0	0	447	
2	0	0	0	0	578	
3	0	0	0	0	440	
4	0	0	0	0	570	
5	0	0	0	0	436	
6	0	0	0	0	574	
7	0	0	0	0	440	
8	0	0	0	0	577	
9	0	0	0	0	441	
10	0	0	0	0	570	
11	0	0	0	0	448	
12	0	0	0	0	585	
13	0	0	0	0	440	
14	0	0	0	0	566	
15	0	0	0	0	440	
0	0	0	0	0	568	
1	0	0	0	0	443	
2	0	0	0	0	578	
3	0	0	0	0	447	
4	0	0	0	0	569	
5	0	0	0	0	438	
6	0	0	0	0	585	
7	0	0	0	0	448	
8	0	0	0	0	574	
9	0	0	0	0	438	
10	0	0	0	0	567	
11	0	0	0	0	436	
12	0	0	0	0	571	
13	0	0	0	0	440	
14	0	0	0	0	563	
15	0	0	0	0	439	
0	0	0	0	0	589	
1	0	0	0	0	438	
2	0	0	0	0	568	
3	0	0	0	0	440	
4	0	0	0	0	563	
5	0	0	0	0	443	
6	0	0	0	0	583	
7	0	0	0	0	441	
8	0	0	0	0	568	
9	0	0	0	0	440	
10	0	0	0	0	579	
11	0	0	0	0	440	
12	0	0	0	0	569	
13	0	0	0	0	442	
14	0	0	0	0	566	
15	0	0	0	0	442	
0	0	0	0	0	587	
1	0	0	0	0	439	
2	0	0	0	0	570	
3	0	0	0	0	439	
4	0	0	0	0	569	
5	0	0	0	0	448	
6	0	0	0	0	572	
7	0	0	0	0	434	
8	0	0	0	0	561	
9	0	0	0	0	436	
10	0	0	0	0	584	
11	0	0	0	0	442	
12	0	0	0	0	563	
13	0	0	0	0	438	
14	0	0	0	0	574	
15	0	0	0	0	441	
0	0	0	0	0	581	
1	0	0	0	0	435	
2	0	0	0	0	568	
3	0	0	0	0	433	
4	0	0	0	0	578	
5	0	0	0	0	441	
6	0	0	0	0	567	
7	0	0	0	0	437	
8	0	0	0	0	568	
9	0	0	0	0	439	
10	0	0	0	0	579	
11	0	0	0	0	430	
12	0	0	0	0	568	
13	0	0	0	0	432	
14	0	0	0	0	577	
15	0	0	0	0	433	
0	0	0	0	0	571	
1	0	0	0	0	427	
2	0	0	0	0	562	
3	0	0	0	0	432	
4	0	0	0	0	575	
5	0	0	0	0	439	
6	0	0	0	0	569	
7	0	0	0	0	439	
8	0	0	0	0	572	
9	0	0	0	0	437	
10	0	0	0	0	574	
11	0	0	0	0	436	
12	0	0	0	0	571	
13	0	0	0	0	428	
14	0	0	0	0	583	
15	0	0	0	0	433	
0	0	0	0	0	574	
1	0	0	0	0	444	
2	0	0	0	0	568	
3	0	0	0	0	434	
4	0	0	0	0	573	
5	0	0	0	0	432	
6	0	0	0	0	559	
7	0	0	0	0	441	
8	0	0	0	0	581	
9	0	0	0	0	431	
10	0	0	0	0	577	
11	0	0	0	0	439	
12	0	0	0	0	564	
13	0	0	0	0	438	
14	0	0	0	0	583	
15	0	0	0	0	427	
0	0	0	0	0	563	
1	0	0	0	0	436	
2	0	0	0	0	588	
3	0	0	0	0	429	
4	0	0	0	0	579	
5	0	0	0	0	422	
6	0	0	0	0	568	
7	0	0	0	0	435	
8	0	0	0	0	585	
9	0	0	0	0	436	
10	0	0	0	0	569	
11	0	0	0	0	428	
12	0	0	0	0	581	
13	0	0	0	0	431	
14	0	0	0	0	580	
15	0	0	0	0	427	
0	0	0	0	0	569	
1	0	0	0	0	433	
2	0	0	0	0	583	
3	0	0	0	0	433	
4	0	0	0	0	568	
5	0	0	0	0	432	
6	0	0	0	0	573	
7	0	0	0	0	436	
8	0	0	0	0	579	
9	0	0	0	0	429	
10	0	0	0	0	563	
11	0	0	0	0	428	
12	0	0	0	0	591	
13	0	0	0	0	431	
14	0	0	0	0	575	
15	0	0	0	0	418	
0	0	0	0	0	575	
1	0	0	0	0	429	
2	0	0	0	0	585	
3	0	0	0	0	437	
4	0	0	0	0	560	
5	0	0	0	0	428	
6	0	0	0	0	585	
7	0	0	0	0	430	
8	0	0	0	0	580	
9	0	0	0	0	427	
10	0	0	0	0	570	
11	0	0	0	0	423	
12	0	0	0	0	580	
13	0	0	0	0	428	
14	0	0	0	0	564	
15	0	0	0	0	424	
0	0	0	0	0	587	
1	0	0	0	0	424	
2	0	0	0	0	584	
3	0	0	0	0	427	
4	0	0	0	0	567	
5	0	0	0	0	420	
6	0	0	0	0	596	
7	0	0	0	0	422	
8	0	0	0	0	581	
9	0	0	0	0	422	
10	0	0	0	0	573	
11	0	0	0	0	423	
12	0	0	0	0	580	
13	0	0	0	0	425	
14	0	0	0	0	562	
15	0	0	0	0	427	
0	0	0	0	0	590	
1	0	0	0	0	428	
2	0	0	0	0	567	
3	0	0	0	0	425	
4	0	0	0	0	577	
5	0	0	0	0	429	
6	0	0	0	0	580	
7	0	0	0	0	427	
8	0	0	0	0	571	
9	0	0	0	0	432	
10	0	0	0	0	586	
11	0	0	0	0	428	
12	0	0	0	0	574	
13	0	0	0	0	429	
14	0	0	0	0	567	
15	0	0	0	0	433	
0	0	0	0	0	586	
1	0	0	0	0	431	
2	0	0	0	0	574	
3	0	0	0	0	427	
4	0	0	0	0	586	
5	0	0	0	0	428	
6	0	0	0	0	576	
7	0	0	0	0	431	
8	0	0	0	0	562	
9	0	0	0	0	428	
10	0	0	0	0	582	
11	0	0	0	0	432	
12	0	0	0	0	572	
13	0	0	0	0	431	
14	0	0	0	0	578	
15	0	0	0	0	427	
0	0	0	0	0	581	
1	0	0	0	0	436	
2	0	0	0	0	565	
3	0	0	0	0	427	
4	0	0	0	0	590	
5	0	0	0	0	430	
6	0	0	0	0	576	
7	0	0	0	0	427	
8	0	0	0	0	566	
9	0	0	0	0	423	
10	0	0	0	0	577	
11	0	0	0	0	429	
12	0	0	0	0	571	
13	0	0	0	0	431	
14	0	0	0	0	586	
15	0	0	0	0	435	
0	0	0	0	0	569	
1	0	0	0	0	431	
2	0	0	0	0	566	
3	0	0	0	0	431	
4	0	0	0	0	580	
5	0	0	0	0	431	
6	0	0	0	0	576	
7	0	0	0	0	433	
8	0	0	0	0	579	
9	0	0	0	0	428	
10	0	0	0	0	571	
11	0	0	0	0	430	
12	0	0	0	0	565	
13	0	0	0	0	427	
14	0	0	0	0	578	
15	0	0	0	0	425	
0	0	0	0	0	572	
1	0	0	0	0	437	
2	0	0	0	0	583	
3	0	0	0	0	428	
4	0	0	0	0	582	
5	0	0	0	0	434	
6	0	0	0	0	571	
7	0	0	0	0	426	
8	0	0	0	0	584	
9	0	0	0	0	417	
10	0	0	0	0	578	
11	0	0	0	0	429	
12	0	0	0	0	581	
13	0	0	0	0	423	
14	0	0	0	0	581	
15	0	0	0	0	429	
0	0	0	0	0	563	
1	0	0	0	0	426	
2	0	0	0	0	595	
3	0	0	0	0	417	
4	0	0	0	0	578	
5	0	0	0	0	423	
6	0	0	0	0	579	
7	0	0	0	0	422	
8	0	0	0	0	584	
9	0	0	0	0	423	
10	0	0	0	0	566	
11	0	0	0	0	426	
12	0	0	0	0	591	
13	0	0	0	0	423	
14	0	0	0	0	581	
15	0	0	0	0	426	
0	0	0	0	0	570	
1	0	0	0	0	423	
2	0	0	0	0	587	
3	0	0	0	0	430	
4	0	0	0	0	572	
5	0	0	0	0	427	
6	0	0	0	0	579	
7	0	0	0	0	425	
8	0	0	0	0	581	
9	0	0	0	0	429	
10	0	0	0	0	569	
11	0	0	0	0	413	
12	0	0	0	0	595	
13	0	0	0	0	423	
14	0	0	0	0	582	
15	0	0	0	0	423	
0	0	0	0	0	585	
1	0	0	0	0	417	
2	0	0	0	0	587	
3	0	0	0	0	428	
4	0	0	0	0	572	
5	0	0	0	0	423	
6	0	0	0	0	589	
7	0	0	0	0	430	
8	0	0	0	0	573	
9	0	0	0	0	425	
10	0	0	0	0	582	
11	0	0	0	0	419	
12	0	0	0	0	585	
13	0	0	0	0	426	
14	0	0	0	0	573	
15	0	0	0	0	423	
0	0	0	0	0	600	
1	0	0	0	0	421	
2	0	0	0	0	580	
3	0	0	0	0	417	
4	0	0	0	0	575	
5	0	0	0	0	417	
6	0	0	0	0	591	
7	0	0	0	0	408	
8	0	0	0	0	578	
9	0	0	0	0	415	
10	0	0	0	0	590	
11	0	0	0	0	419	
12	0	0	0	0	592	
13	0	0	0	0	423	
14	0	0	0	0	583	
15	0	0	0	0	405	
0	0	0	0	0	594	
1	0	0	0	0	412	
2	0	0	0	0	581	
3	0	0	0	0	412	
4	0	0	0	0	592	
5	0	0	0	0	406	
6	0	0	0	0	593	
7	0	0	0	0	412	
8	0	0	0	0	582	
9	0	0	0	0	415	
10	0	0	0	0	603	
11	0	0	0	0	408	
12	0	0	0	0	588	
13	0	0	0	0	413	
14	0	0	0	0	590	
15	0	0	0	0	404	
0	0	0	0	0	605	
1	0	0	0	0	414	
2	0	0	0	0	590	
3	0	0	0	0	406	
4	0	0	0	0	605	
5	0	0	0	0	403	
6	0	0	0	0	599	
7	0	0	0	0	411	
8	0	0	0	0	592	
9	0	0	0	0	408	
10	0	0	0	0	602	
11	0	0	0	0	404	
12	0	0	0	0	584	
13	0	0	0	0	397	
14	0	0	0	0	599	
15	0	0	0	0	403	
0	0	0	0	0	594	
1	0	0	0	0	409	
2	0	0	0	0	586	
3	0	0	0	0	396	
4	0	0	0	0	612	
5	0	0	0	0	395	
6	0	0	0	0	594	
7	0	0	0	0	408	
8	0	0	0	0	597	
9	0	0	0	0	392	
10	0	0	0	0	602	
11	0	0	0	0	404	
12	0	0	0	0	592	
13	0	0	0	0	400	
14	0	0	0	0	617	
15	0	0	0	0	393	
0	0	0	0	0	600	
1	0	0	0	0	410	
2	0	0	0	0	598	
3	0	0	0	0	389	
4	0	0	0	0	612	
5	0	0	0	0	401	
6	0	0	0	0	593	
7	0	0	0	0	399	
8	0	0	0	0	615	
9	0	0	0	0	392	
10	0	0	0	0	600	
11	0	0	0	0	400	
12	0	0	0	0	596	
13	0	0	0	0	391	
14	0	0	0	0	607	
15	0	0	0	0	397	
0	0	0	0	0	597	
1	0	0	0	0	391	
2	0	0	0	0	612	
3	0	0	0	0	388	
4	0	0	0	0	607	
5	0	0	0	0	400	
6	0	0	0	0	590	
7	0	0	0	0	400	
8	0	0	0	0	617	
9	0	0	0	0	398	
10	0	0	0	0	595	
11	0	0	0	0	391	
12	0	0	0	0	606	
13	0	0	0	0	388	
14	0	0	0	0	604	
15	0	0	0	0	397	
0	0	0	0	0	589	
1	0	0	0	0	396	
2	0	0	0	0	621	
3	0	0	0	0	398	
4	0	0	0	0	605	
5	0	0	0	0	394	
6	0	0	0	0	607	
7	0	0	0	0	398	
8	0	0	0	0	604	
9	0	0	0	0	399	
10	0	0	0	0	594	
11	0	0	0	0	396	
12	0	0	0	0	614	
13	0	0	0	0	394	
14	0	0	0	0	600	
15	0	0	0	0	398	
0	0	0	0	0	598	
1	0	0	0	0	401	
2	0	0	0	0	606	
3	0	0	0	0	394	
4	0	0	0	0	590	
5	0	0	0	0	397	
6	0	0	0	0	619	
7	0	0	0	0	391	
8	0	0	0	0	606	
9	0	0	0	0	407	
10	0	0	0	0	587	
11	0	0	0	0	388	
12	0	0	0	0	613	
13	0	0	0	0	391	
14	0	0	0	0	606	
15	0	0	0	0	395	
0	0	0	0	0	616	
1	0	0	0	0	391	
2	0	0	0	0	610	
3	0	0	0	0	402	
4	0	0	0	0	595	
5	0	0	0	0	392	
6	0	0	0	0	611	
7	0	0	0	0	391	
8	0	0	0	0	600	
9	0	0	0	0	399	
10	0	0	0	0	608	
11	0	0	0	0	391	
12	0	0	0	0	612	
13	0	0	0	0	396	
14	0	0	0	0	592	
15	0	0	0	0	392	
0	0	0	0	0	619	
1	0	0	0	0	390	
2	0	0	0	0	603	
3	0	0	0	0	398	
4	0	0	0	0	603	
5	0	0	0	0	390	
6	0	0	0	0	612	
7	0	0	0	0	391	
8	0	0	0	0	594	
9	0	0	0	0	395	
10	0	0	0	0	624	
11	0	0	0	0	392	
12	0	0	0	0	602	
13	0	0	0	0	391	
14	0	0	0	0	599	
15	0	0	0	0	386	
0	0	0	0	0	615	
1	0	0	0	0	390	
2	0	0	0	0	595	
3	0	0	0	0	395	
4	0	0	0	0	617	
5	0	0	0	0	385	
6	0	0	0	0	612	
7	0	0	0	0	393	
8	0	0	0	0	592	
9	0	0	0	0	384	
10	0	0	0	0	614	
11	0	0	0	0	386	
12	0	0	0	0	600	
13	0	0	0	0	389	
14	0	0	0	0	601	
15	0	0	0	0	390	
0	0	0	0	0	618	
1	0	0	0	0	393	
2	0	0	0	0	600	
3	0	0	0	0	391	
4	0	0	0	0	619	
5	0	0	0	0	391	
6	0	0	0	0	601	
7	0	0	0	0	394	
8	0	0	0	0	597	
9	0	0	0	0	387	
10	0	0	0	0	609	
11	0	0	0	0	395	
12	0	0	0	0	601	
13	0	0	0	0	386	
14	0	0	0	0	620	
15	0	0	0	0	379	
0	0	0	0	0	598	
1	0	0	0	0	395	
2	0	0	0	0	603	
3	0	0	0	0	388	
4	0	0	0	0	616	
5	0	0	0	0	394	
6	0	0	0	0	598	
7	0	0	0	0	392	
8	0	0	0	0	626	
9	0	0	0	0	388	
10	0	0	0	0	607	
11	0	0	0	0	389	
12	0	0	0	0	594	
13	0	0	0	0	388	
14	0	0	0	0	608	
15	0	0	0	0	390	
0	0	0	0	0	602	
1	0	0	0	0	391	
2	0	0	0	0	617	
3	0	0	0	0	387	
4	0	0	0	0	608	
5	0	0	0	0	394	
6	0	0	0	0	591	
7	0	0	0	0	391	
8	0	0	0	0	614	
9	0	0	0	0	384	
10	0	0	0	0	603	
11	0	0	0	0	394	
12	0	0	0	0	615	
13	0	0	0	0	387	
14	0	0	0	0	613	
15	0	0	0	0	383	
0	0	0	0	0	593	
1	0	0	0	0	388	
2	0	0	0	0	611	
3	0	0	0	0	381	
4	0	0	0	0	607	
5	0	0	0	0	386	
6	0	0	0	0	612	
7	0	0	0	0	386	
8	0	0	0	0	615	
9	0	0	0	0	398	
10	0	0	0	0	598	
11	0	0	0	0	386	
12	0	0	0	0	624	
13	0	0	0	0	386	
14	0	0	0	0	604	
15	0	0	0	0	393	
0	0	0	0	0	602	
1	0	0	0	0	383	
2	0	0	0	0	608	
3	0	0	0	0	393	
4	0	0	0	0	601	
5	0	0	0	0	388	
6	0	0	0	0	615	
7	0	0	0	0	387	
8	0	0	0	0	602	
9	0	0	0	0	402	
10	0	0	0	0	597	
11	0	0	0	0	393	
12	0	0	0	0	623	
13	0	0	0	0	387	
14	0	0	0	0	598	
15	0	0	0	0	392	
0	0	0	0	0	616	
1	0	0	0	0	391	
2	0	0	0	0	608	
3	0	0	0	0	386	
4	0	0	0	0	595	
5	0	0	0	0	392	
6	0	0	0	0	620	
7	0	0	0	0	386	
8	0	0	0	0	604	
9	0	0	0	0	391	
10	0	0	0	0	600	
11	0	0	0	0	385	
12	0	0	0	0	610	
13	0	0	0	0	396	
14	0	0	0	0	586	
15	0	0	0	0	391	
0	0	0	0	0	619	
1	0	0	0	0	388	
2	0	0	0	0	598	
3	0	0	0	0	398	
4	0	0	0	0	594	
5	0	0	0	0	384	
6	0	0	0	0	609	
7	0	0	0	0	398	
8	0	0	0	0	592	
9	0	0	0	0	399	
10	0	0	0	0	615	
11	0	0	0	0	397	
12	0	0	0	0	593	
13	0	0	0	0	403	
14	0	0	0	0	603	
15	0	0	0	0	393	
0	0	0	0	0	608	
1	0	0	0	0	400	
2	0	0	0	0	592	
3	0	0	0	0	398	
4	0	0	0	0	612	
5	0	0	0	0	398	
6	0	0	0	0	603	
7	0	0	0	0	404	
8	0	0	0	0	591	
9	0	0	0	0	400	
10	0	0	0	0	606	
11	0	0	0	0	395	
12	0	0	0	0	591	
13	0	0	0	0	411	
14	0	0	0	0	598	
15	0	0	0	0	392	
0	0	0	0	0	595	
1	0	0	0	0	414	
2	0	0	0	0	583	
3	0	0	0	0	399	
4	0	0	0	0	595	
5	0	0	0	0	401	
6	0	0	0	0	593	
7	0	0	0	0	411	
8	0	0	0	0	595	
9	0	0	0	0	409	
10	0	0	0	0	591	
11	0	0	0	0	411	
12	0	0	0	0	579	
13	0	0	0	0	411	
14	0	0	0	0	598	
15	0	0	0	0	407	
0	0	0	0	0	584	
1	0	0	0	0	415	
2	0	0	0	0	587	
3	0	0	0	0	411	
4	0	0	0	0	593	
5	0	0	0	0	413	
6	0	0	0	0	585	
7	0	0	0	0	414	
8	0	0	0	0	596	
9	0	0	0	0	412	
10	0	0	0	0	582	
11	0	0	0	0	417	
12	0	0	0	0	583	
13	0	0	0	0	413	
14	0	0	0	0	600	
15	0	0	0	0	408	
0	0	0	0	0	581	
1	0	0	0	0	421	
2	0	0	0	0	588	
3	0	0	0	0	408	
4	0	0	0	0	593	
5	0	0	0	0	419	
6	0	0	0	0	576	
7	0	0	0	0	414	
8	0	0	0	0	592	
9	0	0	0	0	408	
10	0	0	0	0	590	
11	0	0	0	0	415	
12	0	0	0	0	588	
13	0	0	0	0	413	
14	0	0	0	0	590	
15	0	0	0	0	419	
0	0	0	0	0	577	
1	0	0	0	0	415	
2	0	0	0	0	594	
3	0	0	0	0	406	
4	0	0	0	0	586	
5	0	0	0	0	411	
6	0	0	0	0	581	
7	0	0	0	0	415	
8	0	0	0	0	601	
9	0	0	0	0	423	
10	0	0	0	0	575	
11	0	0	0	0	414	
12	0	0	0	0	600	
13	0	0	0	0	409	
14	0	0	0	0	588	
15	0	0	0	0	413	
0	0	0	0	0	581	
1	0	0	0	0	412	
2	0	0	0	0	595	
3	0	0	0	0	412	
4	0	0	0	0	579	
5	0	0	0	0	414	
6	0	0	0	0	597	
7	0	0	0	0	409	
8	0	0	0	0	588	
9	0	0	0	0	413	
10	0	0	0	0	583	
11	0	0	0	0	409	
12	0	0	0	0	599	
13	0	0	0	0	412	
14	0	0	0	0	587	
15	0	0	0	0	411	
0	0	0	0	0	591	
1	0	0	0	0	408	
2	0	0	0	0	590	
3	0	0	0	0	416	
4	0	0	0	0	581	
5	0	0	0	0	413	
6	0	0	0	0	594	
7	0	0	0	0	408	
8	0	0	0	0	578	
9	0	0	0	0	409	
10	0	0	0	0	584	
11	0	0	0	0	405	
12	0	0	0	0	594	
13	0	0	0	0	414	
14	0	0	0	0	585	
15	0	0	0	0	409	
0	0	0	0	0	595	
1	0	0	0	0	408	
2	0	0	0	0	587	
3	0	0	0	0	412	
4	0	0	0	0	585	
5	0	0	0	0	405	
6	0	0	0	0	608	
7	0	0	0	0	405	
8	0	0	0	0	592	
9	0	0	0	0	408	
10	0	0	0	0	604	
11	0	0	0	0	399	
12	0	0	0	0	595	
13	0	0	0	0	414	
14	0	0	0	0	590	
15	0	0	0	0	400	
0	0	0	0	0	608	
1	0	0	0	0	400	
2	0	0	0	0	593	
3	0	0	0	0	401	
4	0	0	0	0	597	
5	0	0	0	0	393	
6	0	0	0	0	610	
7	0	0	0	0	400	
8	0	0	0	0	586	
9	0	0	0	0	397	
10	0	0	0	0	609	
11	0	0	0	0	398	
12	0	0	0	0	598	
13	0	0	0	0	397	
14	0	0	0	0	607	
15	0	0	0	0	382	
0	0	0	0	0	604	
1	0	0	0	0	395	
2	0	0	0	0	597	
3	0	0	0	0	393	
4	0	0	0	0	614	
5	0	0	0	0	388	
6	0	0	0	0	600	
7	0	0	0	0	392	
8	0	0	0	0	598	
9	0	0	0	0	387	
10	0	0	0	0	613	
11	0	0	0	0	394	
12	0	0	0	0	603	
13	0	0	0	0	388	
14	0	0	0	0	615	
15	0	0	0	0	381	
0	0	0	0	0	605	
1	0	0	0	0	394	
2	0	0	0	0	599	
3	0	0	0	0	387	
4	0	0	0	0	620	
5	0	0	0	0	387	
6	0	0	0	0	603	
7	0	0	0	0	394	
8	0	0	0	0	612	
9	0	0	0	0	383	
10	0	0	0	0	617	
11	0	0	0	0	392	
12	0	0	0	0	592	
13	0	0	0	0	386	
14	0	0	0	0	623	
15	0	0	0	0	375	
0	0	0	0	0	601	
1	0	0	0	0	390	
2	0	0	0	0	608	
3	0	0	0	0	383	
4	0	0	0	0	615	
5	0	0	0	0	394	
6	0	0	0	0	600	
7	0	0	0	0	387	
8	0	0	0	0	615	
9	0	0	0	0	380	
10	0	0	0	0	609	
11	0	0	0	0	388	
12	0	0	0	0	602	
13	0	0	0	0	386	
14	0	0	0	0	616	
15	0	0	0	0	379	
0	0	0	0	0	600	
1	0	0	0	0	387	
2	0	0	0	0	629	
3	0	0	0	0	382	
4	0	0	0	0	609	
5	0	0	0	0	392	
6	0	0	0	0	602	
7	0	0	0	0	383	
8	0	0	0	0	617	
9	0	0	0	0	383	
10	0	0	0	0	608	
11	0	0	0	0	386	
12	0	0	0	0	615	
13	0	0	0	0	386	
14	0	0	0	0	626	
15	0	0	0	0	391	
0	0	0	0	0	598	
1	0	0	0	0	380	
2	0	0	0	0	619	
3	0	0	0	0	377	
4	0	0	0	0	609	
5	0	0	0	0	383	
6	0	0	0	0	613	
7	0	0	0	0	381	
8	0	0	0	0	616	
9	0	0	0	0	391	
10	0	0	0	0	602	
11	0	0	0	0	386	
12	0	0	0	0	615	
13	0	0	0	0	384	
14	0	0	0	0	615	
15	0	0	0	0	389	
0	0	0	0	0	603	
1	0	0	0	0	384	
2	0	0	0	0	614	
3	0	0	0	0	387	
4	0	0	0	0	598	
5	0	0	0	0	388	
6	0	0	0	0	619	
7	0	0	0	0	381	
8	0	0	0	0	615	
9	0	0	0	0	389	
10	0	0	0	0	604	
11	0	0	0	0	386	
12	0	0	0	0	619	
13	0	0	0	0	376	
14	0	0	0	0	605	
15	0	0	0	0	384	
0	0	0	0	0	625	
1	0	0	0	0	381	
2	0	0	0	0	612	
3	0	0	0	0	391	
4	0	0	0	0	606	
5	0	0	0	0	383	
6	0	0	0	0	631	
7	0	0	0	0	380	
8	0	0	0	0	609	
9	0	0	0	0	389	
10	0	0	0	0	608	
11	0	0	0	0	385	
12	0	0	0	0	621	
13	0	0	0	0	385	
14	0	0	0	0	611	
15	0	0	0	0	384	
0	0	0	0	0	623	
1	0	0	0	0	378	
2	0	0	0	0	608	
3	0	0	0	0	389	
4	0	0	0	0	607	
5	0	0	0	0	377	
6	0	0	0	0	624	
7	0	0	0	0	382	
8	0	0	0	0	602	
9	0	0	0	0	383	
10	0	0	0	0	615	
11	0	0	0	0	377	
12	0	0	0	0	613	
13	0	0	0	0	385	
14	0	0	0	0	609	
15	0	0	0	0	374	
0	0	0	0	0	620	
1	0	0	0	0	383	
2	0	0	0	0	601	
3	0	0	0	0	388	
4	0	0	0	0	612	
5	0	0	0	0	380	
6	0	0	0	0	619	
7	0	0	0	0	387	
8	0	0	0	0	598	
9	0	0	0	0	380	
10	0	0	0	0	617	
11	0	0	0	0	378	
12	0	0	0	0	600	
13	0	0	0	0	385	
14	0	0	0	0	609	
15	0	0	0	0	381	
0	0	0	0	0	618	
1	0	0	0	0	399	
2	0	0	0	0	599	
3	0	0	0	0	387	
4	0	0	0	0	623	
5	0	0	0	0	384	
6	0	0	0	0	610	
7	0	0	0	0	381	
8	0	0	0	0	608	
9	0	0	0	0	384	
10	0	0	0	0	620	
11	0	0	0	0	380	
12	0	0	0	0	601	
13	0	0	0	0	385	
14	0	0	0	0	619	
15	0	0	0	0	381	
0	0	0	0	0	611	
1	0	0	0	0	392	
2	0	0	0	0	598	
3	0	0	0	0	382	
4	0	0	0	0	622	
5	0	0	0	0	384	
6	0	0	0	0	610	
7	0	0	0	0	386	
8	0	0	0	0	619	
9	0	0	0	0	375	
10	0	0	0	0	613	
11	0	0	0	0	392	
12	0	0	0	0	605	
13	0	0	0	0	382	
14	0	0	0	0	622	
15	0	0	0	0	377	
0	0	0	0	0	607	
1	0	0	0	0	381	
2	0	0	0	0	612	
3	0	0	0	0	376	
4	0	0	0	0	612	
5	0	0	0	0	385	
6	0	0	0	0	607	
7	0	0	0	0	382	
8	0	0	0	0	624	
9	0	0	0	0	382	
10	0	0	0	0	614	
11	0	0	0	0	384	
12	0	0	0	0	604	
13	0	0	0	0	379	
14	0	0	0	0	619	
15	0	0	0	0	387	
0	0	0	0	0	604	
1	0	0	0	0	388	
2	0	0	0	0	612	
3	0	0	0	0	379	
4	0	0	0	0	608	
5	0	0	0	0	389	
6	0	0	0	0	608	
7	0	0	0	0	380	
8	0	0	0	0	617	
9	0	0	0	0	382	
10	0	0	0	0	600	
11	0	0	0	0	391	
12	0	0	0	0	622	
13	0	0	0	0	380	
14	0	0	0	0	615	
15	0	0	0	0	388	
0	0	0	0	0	604	
1	0	0	0	0	383	
2	0	0	0	0	614	
3	0	0	0	0	378	
4	0	0	0	0	601	
5	0	0	0	0	388	
6	0	0	0	0	614	
7	0	0	0	0	384	
8	0	0	0	0	610	
9	0	0	0	0	395	
10	0	0	0	0	595	
11	0	0	0	0	382	
12	0	0	0	0	613	
13	0	0	0	0	380	
14	0	0	0	0	609	
15	0	0	0	0	394	
0	0	0	0	0	610	
1	0	0	0	0	387	
2	0	0	0	0	615	
3	0	0	0	0	385	
4	0	0	0	0	598	
5	0	0	0	0	391	
6	0	0	0	0	616	
7	0	0	0	0	384	
8	0	0	0	0	612	
9	0	0	0	0	388	
10	0	0	0	0	611	
11	0	0	0	0	382	
12	0	0	0	0	615	
13	0	0	0	0	386	
14	0	0	0	0	594	
15	0	0	0	0	393	
0	0	0	0	0	612	
1	0	0	0	0	386	
2	0	0	0	0	605	
3	0	0	0	0	398	
4	0	0	0	0	597	
5	0	0	0	0	391	
6	0	0	0	0	615	
7	0	0	0	0	387	
8	0	0	0	0	606	
9	0	0	0	0	398	
10	0	0	0	0	597	
11	0	0	0	0	387	
12	0	0	0	0	604	
13	0	0	0	0	401	
14	0	0	0	0	596	
15	0	0	0	0	398	
0	0	0	0	0	615	
1	0	0	0	0	390	
2	0	0	0	0	600	
3	0	0	0	0	406	
4	0	0	0	0	595	
5	0	0	0	0	387	
6	0	0	0	0	607	
7	0	0	0	0	390	
8	0	0	0	0	591	
9	0	0	0	0	393	
10	0	0	0	0	606	
11	0	0	0	0	399	
12	0	0	0	0	598	
13	0	0	0	0	397	
14	0	0	0	0	593	
15	0	0	0	0	394	
0	0	0	0	0	603	
1	0	0	0	0	393	
2	0	0	0	0	598	
3	0	0	0	0	401	
4	0	0	0	0	597	
5	0	0	0	0	391	
6	0	0	0	0	596	
7	0	0	0	0	406	
8	0	0	0	0	591	
9	0	0	0	0	404	
10	0	0	0	0	602	
11	0	0	0	0	404	
12	0	0	0	0	586	
13	0	0	0	0	412	
14	0	0	0	0	593	
15	0	0	0	0	406	
0	0	0	0	0	593	
1	0	0	0	0	409	
2	0	0	0	0	585	
3	0	0	0	0	408	
4	0	0	0	0	596	
5	0	0	0	0	410	
6	0	0	0	0	592	
7	0	0	0	0	411	
8	0	0	0	0	593	
9	0	0	0	0	402	
10	0	0	0	0	597	
11	0	0	0	0	408	
12	0	0	0	0	590	
13	0	0	0	0	409	
14	0	0	0	0	603	
15	0	0	0	0	401	
0	0	0	0	0	595	
1	0	0	0	0	412	
2	0	0	0	0	588	
3	0	0	0	0	393	
4	0	0	0	0	598	
5	0	0	0	0	403	
6	0	0	0	0	592	
7	0	0	0	0	415	
8	0	0	0	0	602	
9	0	0	0	0	402	
10	0	0	0	0	596	
11	0	0	0	0	413	
12	0	0	0	0	586	
13	0	0	0	0	409	
14	0	0	0	0	602	
15	0	0	0	0	403	
0	0	0	0	0	582	
1	0	0	0	0	406	
2	0	0	0	0	596	
3	0	0	0	0	397	
4	0	0	0	0	600	
5	0	0	0	0	411	
6	0	0	0	0	581	
7	0	0	0	0	414	
8	0	0	0	0	598	
9	0	0	0	0	409	
10	0	0	0	0	589	
11	0	0	0	0	415	
12	0	0	0	0	589	
13	0	0	0	0	401	
14	0	0	0	0	593	
15	0	0	0	0	409	
0	0	0	0	0	581	
1	0	0	0	0	404	
2	0	0	0	0	605	
3	0	0	0	0	404	
4	0	0	0	0	596	
5	0	0	0	0	405	
6	0	0	0	0	591	
7	0	0	0	0	408	
8	0	0	0	0	600	
9	0	0	0	0	411	
10	0	0	0	0	589	
11	0	0	0	0	412	
12	0	0	0	0	595	
13	0	0	0	0	401	
14	0	0	0	0	588	
15	0	0	0	0	407	
0	0	0	0	0	589	
1	0	0	0	0	399	
2	0	0	0	0	608	
3	0	0	0	0	395	
4	0	0	0	0	593	
5	0	0	0	0	406	
6	0	0	0	0	593	
7	0	0	0	0	401	
8	0	0	0	0	604	
9	0	0	0	0	404	
10	0	0	0	0	590	
11	0	0	0	0	397	
12	0	0	0	0	611	
13	0	0	0	0	392	
14	0	0	0	0	601	
15	0	0	0	0	394	
0	0	0	0	0	604	
1	0	0	0	0	391	
2	0	0	0	0	608	
3	0	0	0	0	399	
4	0	0	0	0	595	
5	0	0	0	0	399	
6	0	0	0	0	613	
7	0	0	0	0	387	
8	0	0	0	0	600	
9	0	0	0	0	398	
10	0	0	0	0	599	
11	0	0	0	0	391	
12	0	0	0	0	609	
13	0	0	0	0	393	
14	0	0	0	0	597	
15	0	0	0	0	388	
0	0	0	0	0	615	
1	0	0	0	0	381	
2	0	0	0	0	606	
3	0	0	0	0	391	
4	0	0	0	0	592	
5	0	0	0	0	385	
6	0	0	0	0	616	
7	0	0	0	0	387	
8	0	0	0	0	603	
9	0	0	0	0	387	
10	0	0	0	0	612	
11	0	0	0	0	383	
12	0	0	0	0	612	
13	0	0	0	0	388	
14	0	0	0	0	602	
15	0	0	0	0	380	
0	0	0	0	0	628	
1	0	0	0	0	390	
2	0	0	0	0	607	
3	0	0	0	0	385	
4	0	0	0	0	611	
5	0	0	0	0	373	
6	0	0	0	0	623	
7	0	0	0	0	384	
8	0	0	0	0	600	
9	0	0	0	0	387	
10	0	0	0	0	627	
11	0	0	0	0	377	
12	0	0	0	0	610	
13	0	0	0	0	380	
14	0	0	0	0	609	
15	0	0	0	0	371	
0	0	0	0	0	622	
1	0	0	0	0	379	
2	0	0	0	0	608	
3	0	0	0	0	380	
4	0	0	0	0	625	
5	0	0	0	0	368	
6	0	0	0	0	622	
7	0	0	0	0	377	
8	0	0	0	0	608	
9	0	0	0	0	367	
10	0	0	0	0	626	
11	0	0	0	0	368	
12	0	0	0	0	611	
13	0	0	0	0	376	
14	0	0	0	0	623	
15	0	0	0	0	366	
0	0	0	0	0	630	
1	0	0	0	0	375	
2	0	0	0	0	611	
3	0	0	0	0	369	
4	0	0	0	0	631	
5	0	0	0	0	364	
6	0	0	0	0	624	
7	0	0	0	0	371	
8	0	0	0	0	619	
9	0	0	0	0	361	
10	0	0	0	0	634	
11	0	0	0	0	367	
12	0	0	0	0	618	
13	0	0	0	0	367	
14	0	0	0	0	638	
15	0	0	0	0	354	
0	0	0	0	0	620	
1	0	0	0	0	359	
2	0	0	0	0	620	
3	0	0	0	0	361	
4	0	0	0	0	632	
5	0	0	0	0	367	
6	0	0	0	0	622	
7	0	0	0	0	370	
8	0	0	0	0	631	
9	0	0	0	0	355	
10	0	0	0	0	626	
11	0	0	0	0	363	
12	0	0	0	0	616	
13	0	0	0	0	361	
14	0	0	0	0	633	
15	0	0	0	0	371	
0	0	0	0	0	615	
1	0	0	0	0	364	
2	0	0	0	0	627	
3	0	0	0	0	351	
4	0	0	0	0	633	
5	0	0	0	0	364	
6	0	0	0	0	617	
7	0	0	0	0	359	
8	0	0	0	0	647	
9	0	0	0	0	353	
10	0	0	0	0	627	
11	0	0	0	0	359	
12	0	0	0	0	629	
13	0	0	0	0	361	
14	0	0	0	0	637	
15	0	0	0	0	361	
0	0	0	0	0	621	
1	0	0	0	0	363	
2	0	0	0	0	644	
3	0	0	0	0	351	
4	0	0	0	0	631	
5	0	0	0	0	364	
6	0	0	0	0	624	
7	0	0	0	0	345	
8	0	0	0	0	636	
9	0	0	0	0	367	
10	0	0	0	0	618	
11	0	0	0	0	369	
12	0	0	0	0	633	
13	0	0	0	0	357	
14	0	0	0	0	631	
15	0	0	0	0	375	
0	0	0	0	0	617	
1	0	0	0	0	361	
2	0	0	0	0	633	
3	0	0	0	0	359	
4	0	0	0	0	626	
5	0	0	0	0	372	
6	0	0	0	0	624	
7	0	0	0	0	365	
8	0	0	0	0	634	
9	0	0	0	0	375	
10	0	0	0	0	622	
11	0	0	0	0	363	
12	0	0	0	0	642	
13	0	0	0	0	366	
14	0	0	0	0	616	
15	0	0	0	0	364	
0	0	0	0	0	625	
1	0	0	0	0	360	
2	0	0	0	0	632	
3	0	0	0	0	369	
4	0	0	0	0	614	
5	0	0	0	0	370	
6	0	0	0	0	633	
7	0	0	0	0	361	
8	0	0	0	0	620	
9	0	0	0	0	365	
10	0	0	0	0	616	
11	0	0	0	0	364	
12	0	0	0	0	636	
13	0	0	0	0	368	
14	0	0	0	0	615	
15	0	0	0	0	374	
0	0	0	0	0	641	
1	0	0	0	0	357	
2	0	0	0	0	628	
3	0	0	0	0	360	
4	0	0	0	0	613	
5	0	0	0	0	356	
6	0	0	0	0	638	
7	0	0	0	0	361	
8	0	0	0	0	624	
9	0	0	0	0	368	
10	0	0	0	0	630	
11	0	0	0	0	354	
12	0	0	0	0	634	
13	0	0	0	0	371	
14	0	0	0	0	614	
15	0	0	0	0	365	
0	0	0	0	0	637	
1	0	0	0	0	361	
2	0	0	0	0	622	
3	0	0	0	0	361	
4	0	0	0	0	631	
5	0	0	0	0	363	
6	0	0	0	0	635	
7	0	0	0	0	360	
8	0	0	0	0	622	
9	0	0	0	0	362	
10	0	0	0	0	640	
11	0	0	0	0	357	
12	0	0	0	0	622	
13	0	0	0	0	370	
14	0	0	0	0	622	
15	0	0	0	0	358	
0	0	0	0	0	636	
1	0	0	0	0	367	
2	0	0	0	0	623	
3	0	0	0	0	368	
4	0	0	0	0	637	
5	0	0	0	0	356	
6	0	0	0	0	632	
7	0	0	0	0	367	
8	0	0	0	0	618	
9	0	0	0	0	353	
10	0	0	0	0	641	
11	0	0	0	0	357	
12	0	0	0	0	621	
13	0	0	0	0	361	
14	0	0	0	0	627	
15	0	0	0	0	355	
0	0	0	0	0	633	
1	0	0	0	0	371	
2	0	0	0	0	613	
3	0	0	0	0	358	
4	0	0	0	0	635	
5	0	0	0	0	365	
6	0	0	0	0	626	
7	0	0	0	0	361	
8	0	0	0	0	618	
9	0	0	0	0	358	
10	0	0	0	0	635	
11	0	0	0	0	367	
12	0	0	0	0	617	
13	0	0	0	0	364	
14	0	0	0	0	634	
15	0	0	0	0	364	
0	0	0	0	0	630	
1	0	0	0	0	365	
2	0	0	0	0	623	
3	0	0	0	0	353	
4	0	0	0	0	632	
5	0	0	0	0	368	
6	0	0	0	0	622	
7	0	0	0	0	360	
8	0	0	0	0	642	
9	0	0	0	0	352	
10	0	0	0	0	633	
11	0	0	0	0	371	
12	0	0	0	0	622	
13	0	0	0	0	364	
14	0	0	0	0	631	
15	0	0	0	0	355	
0	0	0	0	0	620	
1	0	0	0	0	362	
2	0	0	0	0	635	
3	0	0	0	0	353	
4	0	0	0	0	632	
5	0	0	0	0	366	
6	0	0	0	0	615	
7	0	0	0	0	361	
8	0	0	0	0	644	
9	0	0	0	0	354	
10	0	0	0	0	621	
11	0	0	0	0	361	
12	0	0	0	0	627	
13	0	0	0	0	357	
14	0	0	0	0	631	
15	0	0	0	0	367	
0	0	0	0	0	616	
1	0	0	0	0	361	
2	0	0	0	0	645	
3	0	0	0	0	356	
4	0	0	0	0	630	
5	0	0	0	0	364	
6	0	0	0	0	621	
7	0	0	0	0	359	
8	0	0	0	0	637	
9	0	0	0	0	366	
10	0	0	0	0	624	
11	0	0	0	0	363	
12	0	0	0	0	635	
13	0	0	0	0	355	
14	0	0	0	0	631	
15	0	0	0	0	368	
0	0	0	0	0	616	
1	0	0	0	0	363	
2	0	0	0	0	638	
3	0	0	0	0	356	
4	0	0	0	0	620	
5	0	0	0	0	364	
6	0	0	0	0	632	
7	0	0	0	0	364	
8	0	0	0	0	633	
9	0	0	0	0	368	
10	0	0	0	0	616	
11	0	0	0	0	365	
12	0	0	0	0	641	
13	0	0	0	0	362	
14	0	0	0	0	623	
15	0	0	0	0	368	
0	0	0	0	0	625	
1	0	0	0	0	363	
2	0	0	0	0	637	
3	0	0	0	0	368	
4	0	0	0	0	615	
5	0	0	0	0	366	
6	0	0	0	0	641	
7	0	0	0	0	363	
8	0	0	0	0	625	
9	0	0	0	0	378	
10	0	0	0	0	621	
11	0	0	0	0	363	
12	0	0	0	0	625	
13	0	0	0	0	377	
14	0	0	0	0	609	
15	0	0	0	0	374	
0	0	0	0	0	636	
1	0	0	0	0	359	
2	0	0	0	0	620	
3	0	0	0	0	372	
4	0	0	0	0	613	
5	0	0	0	0	371	
6	0	0	0	0	627	
7	0	0	0	0	371	
8	0	0	0	0	610	
9	0	0	0	0	374	
10	0	0	0	0	622	
11	0	0	0	0	362	
12	0	0	0	0	622	
13	0	0	0	0	384	
14	0	0	0	0	606	
15	0	0	0	0	371	
0	0	0	0	0	623	
1	0	0	0	0	380	
2	0	0	0	0	613	
3	0	0	0	0	384	
4	0	0	0	0	615	
5	0	0	0	0	383	
6	0	0	0	0	611	
7	0	0	0	0	385	
8	0	0	0	0	608	
9	0	0	0	0	383	
10	0	0	0	0	617	
11	0	0	0	0	381	
12	0	0	0	0	614	
13	0	0	0	0	384	
14	0	0	0	0	610	
15	0	0	0	0	376	
0	0	0	0	0	611	
1	0	0	0	0	387	
2	0	0	0	0	601	
3	0	0	0	0	381	
4	0	0	0	0	614	
5	0	0	0	0	388	
6	0	0	0	0	615	
7	0	0	0	0	393	
8	0	0	0	0	600	
9	0	0	0	0	391	
10	0	0	0	0	613	
11	0	0	0	0	387	
12	0	0	0	0	600	
13	0	0	0	0	388	
14	0	0	0	0	606	
15	0	0	0	0	384	
0	0	0	0	0	613	
1	0	0	0	0	397	
2	0	0	0	0	600	
3	0	0	0	0	392	
4	0	0	0	0	606	
5	0	0	0	0	381	
6	0	0	0	0	598	
7	0	0	0	0	392	
8	0	0	0	0	612	
9	0	0	0	0	385	
10	0	0	0	0	611	
11	0	0	0	0	395	
12	0	0	0	0	587	
13	0	0	0	0	389	
14	0	0	0	0	614	
15	0	0	0	0	380	
0	0	0	0	0	595	
1	0	0	0	0	388	
2	0	0	0	0	598	
3	0	0	0	0	387	
4	0	0	0	0	612	
5	0	0	0	0	401	
6	0	0	0	0	589	
7	0	0	0	0	392	
8	0	0	0	0	613	
9	0	0	0	0	387	
10	0	0	0	0	598	
11	0	0	0	0	395	
12	0	0	0	0	591	
13	0	0	0	0	393	
14	0	0	0	0	609	
15	0	0	0	0	394	
0	0	0	0	0	599	
1	0	0	0	0	388	
2	0	0	0	0	612	
3	0	0	0	0	386	
4	0	0	0	0	611	
5	0	0	0	0	398	
6	0	0	0	0	590	
7	0	0	0	0	388	
8	0	0	0	0	611	
9	0	0	0	0	385	
10	0	0	0	0	600	
11	0	0	0	0	399	
12	0	0	0	0	608	
13	0	0	0	0	391	
14	0	0	0	0	601	
15	0	0	0	0	407	
0	0	0	0	0	597	
1	0	0	0	0	393	
2	0	0	0	0	615	
3	0	0	0	0	391	
4	0	0	0	0	593	
5	0	0	0	0	395	
6	0	0	0	0	595	
7	0	0	0	0	386	
8	0	0	0	0	611	
9	0	0	0	0	400	
10	0	0	0	0	589	
11	0	0	0	0	386	
12	0	0	0	0	609	
13	0	0	0	0	385	
14	0	0	0	0	606	
15	0	0	0	0	391	
0	0	0	0	0	600	
1	0	0	0	0	389	
2	0	0	0	0	606	
3	0	0	0	0	384	
4	0	0	0	0	594	
5	0	0	0	0	396	
6	0	0	0	0	609	
7	0	0	0	0	391	
8	0	0	0	0	604	
9	0	0	0	0	399	
10	0	0	0	0	592	
11	0	0	0	0	388	
12	0	0	0	0	611	
13	0	0	0	0	388	
14	0	0	0	0	599	
15	0	0	0	0	394	
0	0	0	0	0	601	
1	0	0	0	0	386	
2	0	0	0	0	607	
3	0	0	0	0	398	
4	0	0	0	0	599	
5	0	0	0	0	391	
6	0	0	0	0	618	
7	0	0	0	0	387	
8	0	0	0	0	595	
9	0	0	0	0	391	
10	0	0	0	0	601	
11	0	0	0	0	390	
12	0	0	0	0	603	
13	0	0	0	0	399	
14	0	0	0	0	599	
15	0	0	0	0	387	
0	0	0	0	0	617	
1	0	0	0	0	388	
2	0	0	0	0	604	
3	0	0	0	0	401	
4	0	0	0	0	593	
5	0	0	0	0	387	
6	0	0	0	0	606	
7	0	0	0	0	390	
8	0	0	0	0	590	
9	0	0	0	0	392	
10	0	0	0	0	613	
11	0	0	0	0	393	
12	0	0	0	0	605	
13	0	0	0	0	396	
14	0	0	0	0	592	
15	0	0	0	0	395	
0	0	0	0	0	614	
1	0	0	0	0	394	
2	0	0	0	0	599	
3	0	0	0	0	403	
4	0	0	0	0	613	
5	0	0	0	0	388	
6	0	0	0	0	595	
7	0	0	0	0	393	
8	0	0	0	0	590	
9	0	0	0	0	393	
10	0	0	0	0	609	
11	0	0	0	0	385	
12	0	0	0	0	605	
13	0	0	0	0	397	
14	0	0	0	0	598	
15	0	0	0	0	385	
0	0	0	0	0	604	
1	0	0	0	0	395	
2	0	0	0	0	594	
3	0	0	0	0	403	
4	0	0	0	0	615	
5	0	0	0	0	389	
6	0	0	0	0	593	
7	0	0	0	0	401	
8	0	0	0	0	598	
9	0	0	0	0	386	
10	0	0	0	0	604	
11	0	0	0	0	398	
12	0	0	0	0	595	
13	0	0	0	0	387	
14	0	0	0	0	604	
15	0	0	0	0	388	
0	0	0	0	0	606	
1	0	0	0	0	401	
2	0	0	0	0	595	
3	0	0	0	0	397	
4	0	0	0	0	607	
5	0	0	0	0	395	
6	0	0	0	0	596	
7	0	0	0	0	400	
8	0	0	0	0	605	
9	0	0	0	0	388	
10	0	0	0	0	605	
11	0	0	0	0	403	
12	0	0	0	0	591	
13	0	0	0	0	395	
14	0	0	0	0	609	
15	0	0	0	0	385	
0	0	0	0	0	597	
1	0	0	0	0	392	
2	0	0	0	0	604	
3	0	0	0	0	386	
4	0	0	0	0	599	
5	0	0	0	0	399	
6	0	0	0	0	596	
7	0	0	0	0	395	
8	0	0	0	0	610	
9	0	0	0	0	394	
10	0	0	0	0	595	
11	0	0	0	0	397	
12	0	0	0	0	591	
13	0	0	0	0	390	
14	0	0	0	0	609	
15	0	0	0	0	395	
0	0	0	0	0	599	
1	0	0	0	0	402	
2	0	0	0	0	613	
3	0	0	0	0	391	
4	0	0	0	0	600	
5	0	0	0	0	399	
6	0	0	0	0	594	
7	0	0	0	0	393	
8	0	0	0	0	613	
9	0	0	0	0	389	
10	0	0	0	0	588	
11	0	0	0	0	394	
12	0	0	0	0	605	
13	0	0	0	0	390	
14	0	0	0	0	601	
15	0	0	0	0	404	
0	0	0	0	0	590	
1	0	0	0	0	394	
2	0	0	0	0	611	
3	0	0	0	0	393	
4	0	0	0	0	598	
5	0	0	0	0	396	
6	0	0	0	0	595	
7	0	0	0	0	395	
8	0	0	0	0	607	
9	0	0	0	0	405	
10	0	0	0	0	582	
11	0	0	0	0	397	
12	0	0	0	0	610	
13	0	0	0	0	390	
14	0	0	0	0	601	
15	0	0	0	0	396	
0	0	0	0	0	603	
1	0	0	0	0	390	
2	0	0	0	0	609	
3	0	0	0	0	402	
4	0	0	0	0	589	
5	0	0	0	0	396	
6	0	0	0	0	608	
7	0	0	0	0	390	
8	0	0	0	0	596	
9	0	0	0	0	397	
10	0	0	0	0	596	
11	0	0	0	0	392	
12	0	0	0	0	608	
13	0	0	0	0	400	
14	0	0	0	0	586	
15	0	0	0	0	394	
0	0	0	0	0	603	
1	0	0	0	0	396	
2	0	0	0	0	601	
3	0	0	0	0	405	
4	0	0	0	0	590	
