0	0	0	0	0	480	
1	0	0	0	0	542	
2	0	0	0	0	479	
3	0	0	0	0	543	
4	0	0	0	0	480	
5	0	0	0	0	544	
6	0	0	0	0	479	
7	0	0	0	0	541	
8	0	0	0	0	482	
9	0	0	0	0	539	
10	0	0	0	0	477	
11	0	0	0	0	542	
12	0	0	0	0	480	
13	0	0	0	0	542	
14	0	0	0	0	478	
15	0	0	0	0	542	
0	0	0	0	0	479	
1	0	0	0	0	541	
2	0	0	0	0	479	
3	0	0	0	0	542	
4	0	0	0	0	479	
5	0	0	0	0	542	
6	0	0	0	0	478	
7	0	0	0	0	543	
8	0	0	0	0	482	
9	0	0	0	0	538	
10	0	0	0	0	478	
11	0	0	0	0	542	
12	0	0	0	0	481	
13	0	0	0	0	539	
14	0	0	0	0	481	
15	0	0	0	0	541	
0	0	0	0	0	483	
1	0	0	0	0	540	
2	0	0	0	0	483	
3	0	0	0	0	536	
4	0	0	0	0	481	
5	0	0	0	0	538	
6	0	0	0	0	482	
7	0	0	0	0	538	
8	0	0	0	0	481	
9	0	0	0	0	539	
10	0	0	0	0	478	
11	0	0	0	0	543	
12	0	0	0	0	477	
13	0	0	0	0	541	
14	0	0	0	0	477	
15	0	0	0	0	541	
0	0	0	0	0	479	
1	0	0	0	0	541	
2	0	0	0	0	478	
3	0	0	0	0	541	
4	0	0	0	0	476	
5	0	0	0	0	544	
6	0	0	0	0	479	
7	0	0	0	0	539	
8	0	0	0	0	478	
9	0	0	0	0	544	
10	0	0	0	0	481	
11	0	0	0	0	548	
12	0	0	0	0	479	
13	0	0	0	0	543	
14	0	0	0	0	481	
15	0	0	0	0	541	
0	0	0	0	0	481	
1	0	0	0	0	536	
2	0	0	0	0	480	
3	0	0	0	0	537	
4	0	0	0	0	485	
5	0	0	0	0	541	
6	0	0	0	0	479	
7	0	0	0	0	543	
8	0	0	0	0	478	
9	0	0	0	0	540	
10	0	0	0	0	484	
11	0	0	0	0	540	
12	0	0	0	0	484	
13	0	0	0	0	539	
14	0	0	0	0	483	
15	0	0	0	0	543	
0	0	0	0	0	483	
1	0	0	0	0	543	
2	0	0	0	0	480	
3	0	0	0	0	544	
4	0	0	0	0	480	
5	0	0	0	0	544	
6	0	0	0	0	473	
7	0	0	0	0	544	
8	0	0	0	0	475	
9	0	0	0	0	545	
10	0	0	0	0	475	
11	0	0	0	0	546	
12	0	0	0	0	480	
13	0	0	0	0	543	
14	0	0	0	0	472	
15	0	0	0	0	550	
0	0	0	0	0	476	
1	0	0	0	0	543	
2	0	0	0	0	471	
3	0	0	0	0	548	
4	0	0	0	0	480	
5	0	0	0	0	543	
6	0	0	0	0	474	
7	0	0	0	0	544	
8	0	0	0	0	475	
9	0	0	0	0	546	
10	0	0	0	0	481	
11	0	0	0	0	546	
12	0	0	0	0	476	
13	0	0	0	0	544	
14	0	0	0	0	478	
15	0	0	0	0	547	
0	0	0	0	0	474	
1	0	0	0	0	545	
2	0	0	0	0	472	
3	0	0	0	0	535	
4	0	0	0	0	480	
5	0	0	0	0	543	
6	0	0	0	0	482	
7	0	0	0	0	543	
8	0	0	0	0	480	
9	0	0	0	0	541	
10	0	0	0	0	474	
11	0	0	0	0	542	
12	0	0	0	0	477	
13	0	0	0	0	542	
14	0	0	0	0	481	
15	0	0	0	0	542	
0	0	0	0	0	480	
1	0	0	0	0	544	
2	0	0	0	0	477	
3	0	0	0	0	544	
4	0	0	0	0	482	
5	0	0	0	0	539	
6	0	0	0	0	478	
7	0	0	0	0	545	
8	0	0	0	0	483	
9	0	0	0	0	538	
10	0	0	0	0	480	
11	0	0	0	0	537	
12	0	0	0	0	484	
13	0	0	0	0	537	
14	0	0	0	0	486	
15	0	0	0	0	535	
0	0	0	0	0	488	
1	0	0	0	0	528	
2	0	0	0	0	483	
3	0	0	0	0	536	
4	0	0	0	0	487	
5	0	0	0	0	531	
6	0	0	0	0	483	
7	0	0	0	0	535	
8	0	0	0	0	492	
9	0	0	0	0	529	
10	0	0	0	0	486	
11	0	0	0	0	535	
12	0	0	0	0	488	
13	0	0	0	0	534	
14	0	0	0	0	482	
15	0	0	0	0	536	
0	0	0	0	0	485	
1	0	0	0	0	536	
2	0	0	0	0	487	
3	0	0	0	0	537	
4	0	0	0	0	485	
5	0	0	0	0	540	
6	0	0	0	0	482	
7	0	0	0	0	535	
8	0	0	0	0	483	
9	0	0	0	0	536	
10	0	0	0	0	480	
11	0	0	0	0	537	
12	0	0	0	0	480	
13	0	0	0	0	540	
14	0	0	0	0	478	
15	0	0	0	0	539	
0	0	0	0	0	479	
1	0	0	0	0	541	
2	0	0	0	0	479	
3	0	0	0	0	538	
4	0	0	0	0	481	
5	0	0	0	0	540	
6	0	0	0	0	483	
7	0	0	0	0	543	
8	0	0	0	0	481	
9	0	0	0	0	541	
10	0	0	0	0	476	
11	0	0	0	0	539	
12	0	0	0	0	485	
13	0	0	0	0	540	
14	0	0	0	0	480	
15	0	0	0	0	541	
0	0	0	0	0	480	
1	0	0	0	0	542	
2	0	0	0	0	479	
3	0	0	0	0	536	
4	0	0	0	0	480	
5	0	0	0	0	542	
6	0	0	0	0	485	
7	0	0	0	0	540	
8	0	0	0	0	477	
9	0	0	0	0	541	
10	0	0	0	0	478	
11	0	0	0	0	543	
12	0	0	0	0	484	
13	0	0	0	0	543	
14	0	0	0	0	474	
15	0	0	0	0	541	
0	0	0	0	0	475	
1	0	0	0	0	540	
2	0	0	0	0	477	
3	0	0	0	0	547	
4	0	0	0	0	480	
5	0	0	0	0	543	
6	0	0	0	0	476	
7	0	0	0	0	547	
8	0	0	0	0	477	
9	0	0	0	0	541	
10	0	0	0	0	476	
11	0	0	0	0	545	
12	0	0	0	0	475	
13	0	0	0	0	545	
14	0	0	0	0	480	
15	0	0	0	0	540	
0	0	0	0	0	478	
1	0	0	0	0	543	
2	0	0	0	0	475	
3	0	0	0	0	544	
4	0	0	0	0	479	
5	0	0	0	0	541	
6	0	0	0	0	475	
7	0	0	0	0	541	
8	0	0	0	0	479	
9	0	0	0	0	543	
10	0	0	0	0	479	
11	0	0	0	0	540	
12	0	0	0	0	478	
13	0	0	0	0	543	
14	0	0	0	0	480	
15	0	0	0	0	541	
0	0	0	0	0	480	
1	0	0	0	0	541	
2	0	0	0	0	479	
3	0	0	0	0	544	
4	0	0	0	0	481	
5	0	0	0	0	543	
6	0	0	0	0	479	
7	0	0	0	0	540	
8	0	0	0	0	480	
9	0	0	0	0	542	
10	0	0	0	0	478	
11	0	0	0	0	544	
12	0	0	0	0	477	
13	0	0	0	0	545	
14	0	0	0	0	475	
15	0	0	0	0	544	
0	0	0	0	0	476	
1	0	0	0	0	541	
2	0	0	0	0	474	
3	0	0	0	0	544	
4	0	0	0	0	478	
5	0	0	0	0	546	
6	0	0	0	0	475	
7	0	0	0	0	547	
8	0	0	0	0	476	
9	0	0	0	0	540	
10	0	0	0	0	477	
11	0	0	0	0	542	
12	0	0	0	0	479	
13	0	0	0	0	544	
14	0	0	0	0	479	
15	0	0	0	0	542	
0	0	0	0	0	477	
1	0	0	0	0	539	
2	0	0	0	0	488	
3	0	0	0	0	533	
4	0	0	0	0	487	
5	0	0	0	0	527	
6	0	0	0	0	473	
7	0	0	0	0	537	
8	0	0	0	0	494	
9	0	0	0	0	540	
10	0	0	0	0	476	
11	0	0	0	0	543	
12	0	0	0	0	478	
13	0	0	0	0	541	
14	0	0	0	0	479	
15	0	0	0	0	539	
0	0	0	0	0	486	
1	0	0	0	0	538	
2	0	0	0	0	485	
3	0	0	0	0	533	
4	0	0	0	0	485	
5	0	0	0	0	536	
6	0	0	0	0	478	
7	0	0	0	0	537	
8	0	0	0	0	480	
9	0	0	0	0	539	
10	0	0	0	0	485	
11	0	0	0	0	532	
12	0	0	0	0	487	
13	0	0	0	0	532	
14	0	0	0	0	486	
15	0	0	0	0	531	
0	0	0	0	0	487	
1	0	0	0	0	536	
2	0	0	0	0	474	
3	0	0	0	0	535	
4	0	0	0	0	487	
5	0	0	0	0	535	
6	0	0	0	0	481	
7	0	0	0	0	533	
8	0	0	0	0	486	
9	0	0	0	0	534	
10	0	0	0	0	487	
11	0	0	0	0	535	
12	0	0	0	0	492	
13	0	0	0	0	531	
14	0	0	0	0	482	
15	0	0	0	0	530	
0	0	0	0	0	491	
1	0	0	0	0	533	
2	0	0	0	0	487	
3	0	0	0	0	533	
4	0	0	0	0	491	
5	0	0	0	0	534	
6	0	0	0	0	487	
7	0	0	0	0	532	
8	0	0	0	0	489	
9	0	0	0	0	534	
10	0	0	0	0	486	
11	0	0	0	0	530	
12	0	0	0	0	486	
13	0	0	0	0	533	
14	0	0	0	0	485	
15	0	0	0	0	532	
0	0	0	0	0	488	
1	0	0	0	0	532	
2	0	0	0	0	485	
3	0	0	0	0	531	
4	0	0	0	0	490	
5	0	0	0	0	535	
6	0	0	0	0	485	
7	0	0	0	0	531	
8	0	0	0	0	490	
9	0	0	0	0	535	
10	0	0	0	0	487	
11	0	0	0	0	529	
12	0	0	0	0	488	
13	0	0	0	0	535	
14	0	0	0	0	486	
15	0	0	0	0	536	
0	0	0	0	0	485	
1	0	0	0	0	535	
2	0	0	0	0	484	
3	0	0	0	0	536	
4	0	0	0	0	486	
5	0	0	0	0	537	
6	0	0	0	0	482	
7	0	0	0	0	536	
8	0	0	0	0	484	
9	0	0	0	0	535	
10	0	0	0	0	485	
11	0	0	0	0	534	
12	0	0	0	0	485	
13	0	0	0	0	535	
14	0	0	0	0	486	
15	0	0	0	0	531	
0	0	0	0	0	488	
1	0	0	0	0	534	
2	0	0	0	0	487	
3	0	0	0	0	531	
4	0	0	0	0	488	
5	0	0	0	0	535	
6	0	0	0	0	487	
7	0	0	0	0	536	
8	0	0	0	0	484	
9	0	0	0	0	535	
10	0	0	0	0	483	
11	0	0	0	0	537	
12	0	0	0	0	485	
13	0	0	0	0	534	
14	0	0	0	0	482	
15	0	0	0	0	537	
0	0	0	0	0	489	
1	0	0	0	0	534	
2	0	0	0	0	484	
3	0	0	0	0	529	
4	0	0	0	0	489	
5	0	0	0	0	532	
6	0	0	0	0	486	
7	0	0	0	0	536	
8	0	0	0	0	485	
9	0	0	0	0	533	
10	0	0	0	0	486	
11	0	0	0	0	534	
12	0	0	0	0	488	
13	0	0	0	0	536	
14	0	0	0	0	485	
15	0	0	0	0	538	
0	0	0	0	0	485	
1	0	0	0	0	535	
2	0	0	0	0	488	
3	0	0	0	0	539	
4	0	0	0	0	486	
5	0	0	0	0	534	
6	0	0	0	0	481	
7	0	0	0	0	531	
8	0	0	0	0	482	
9	0	0	0	0	533	
10	0	0	0	0	487	
11	0	0	0	0	534	
12	0	0	0	0	485	
13	0	0	0	0	530	
14	0	0	0	0	487	
15	0	0	0	0	531	
0	0	0	0	0	485	
1	0	0	0	0	535	
2	0	0	0	0	488	
3	0	0	0	0	530	
4	0	0	0	0	487	
5	0	0	0	0	535	
6	0	0	0	0	486	
7	0	0	0	0	532	
8	0	0	0	0	483	
9	0	0	0	0	535	
10	0	0	0	0	487	
11	0	0	0	0	533	
12	0	0	0	0	486	
13	0	0	0	0	538	
14	0	0	0	0	485	
15	0	0	0	0	536	
0	0	0	0	0	487	
1	0	0	0	0	536	
2	0	0	0	0	481	
3	0	0	0	0	531	
4	0	0	0	0	489	
5	0	0	0	0	534	
6	0	0	0	0	484	
7	0	0	0	0	534	
8	0	0	0	0	490	
9	0	0	0	0	536	
10	0	0	0	0	486	
11	0	0	0	0	532	
12	0	0	0	0	487	
13	0	0	0	0	531	
14	0	0	0	0	487	
15	0	0	0	0	533	
0	0	0	0	0	488	
1	0	0	0	0	535	
2	0	0	0	0	487	
3	0	0	0	0	533	
4	0	0	0	0	485	
5	0	0	0	0	535	
6	0	0	0	0	483	
7	0	0	0	0	533	
8	0	0	0	0	487	
9	0	0	0	0	535	
10	0	0	0	0	482	
11	0	0	0	0	531	
12	0	0	0	0	487	
13	0	0	0	0	534	
14	0	0	0	0	487	
15	0	0	0	0	532	
0	0	0	0	0	486	
1	0	0	0	0	535	
2	0	0	0	0	489	
3	0	0	0	0	534	
4	0	0	0	0	486	
5	0	0	0	0	531	
6	0	0	0	0	485	
7	0	0	0	0	537	
8	0	0	0	0	488	
9	0	0	0	0	536	
10	0	0	0	0	487	
11	0	0	0	0	530	
12	0	0	0	0	490	
13	0	0	0	0	536	
14	0	0	0	0	486	
15	0	0	0	0	533	
0	0	0	0	0	481	
1	0	0	0	0	536	
2	0	0	0	0	486	
3	0	0	0	0	531	
4	0	0	0	0	484	
5	0	0	0	0	528	
6	0	0	0	0	486	
7	0	0	0	0	533	
8	0	0	0	0	486	
9	0	0	0	0	529	
10	0	0	0	0	488	
11	0	0	0	0	534	
12	0	0	0	0	485	
13	0	0	0	0	530	
14	0	0	0	0	487	
15	0	0	0	0	530	
0	0	0	0	0	490	
1	0	0	0	0	534	
2	0	0	0	0	489	
3	0	0	0	0	531	
4	0	0	0	0	487	
5	0	0	0	0	529	
6	0	0	0	0	487	
7	0	0	0	0	535	
8	0	0	0	0	491	
9	0	0	0	0	530	
10	0	0	0	0	488	
11	0	0	0	0	535	
12	0	0	0	0	492	
13	0	0	0	0	532	
14	0	0	0	0	489	
15	0	0	0	0	530	
0	0	0	0	0	490	
1	0	0	0	0	530	
2	0	0	0	0	484	
3	0	0	0	0	532	
4	0	0	0	0	489	
5	0	0	0	0	531	
6	0	0	0	0	489	
7	0	0	0	0	534	
8	0	0	0	0	489	
9	0	0	0	0	532	
10	0	0	0	0	488	
11	0	0	0	0	531	
12	0	0	0	0	488	
13	0	0	0	0	533	
14	0	0	0	0	488	
15	0	0	0	0	529	
0	0	0	0	0	489	
1	0	0	0	0	530	
2	0	0	0	0	489	
3	0	0	0	0	532	
4	0	0	0	0	487	
5	0	0	0	0	533	
6	0	0	0	0	487	
7	0	0	0	0	531	
8	0	0	0	0	489	
9	0	0	0	0	535	
10	0	0	0	0	483	
11	0	0	0	0	534	
12	0	0	0	0	489	
13	0	0	0	0	531	
14	0	0	0	0	484	
15	0	0	0	0	531	
0	0	0	0	0	489	
1	0	0	0	0	532	
2	0	0	0	0	492	
3	0	0	0	0	531	
4	0	0	0	0	487	
5	0	0	0	0	536	
6	0	0	0	0	486	
7	0	0	0	0	529	
8	0	0	0	0	491	
9	0	0	0	0	531	
10	0	0	0	0	486	
11	0	0	0	0	533	
12	0	0	0	0	489	
13	0	0	0	0	534	
14	0	0	0	0	487	
15	0	0	0	0	529	
0	0	0	0	0	489	
1	0	0	0	0	531	
2	0	0	0	0	488	
3	0	0	0	0	532	
4	0	0	0	0	489	
5	0	0	0	0	531	
6	0	0	0	0	487	
7	0	0	0	0	529	
8	0	0	0	0	485	
9	0	0	0	0	533	
10	0	0	0	0	491	
11	0	0	0	0	531	
12	0	0	0	0	489	
13	0	0	0	0	529	
14	0	0	0	0	485	
15	0	0	0	0	528	
0	0	0	0	0	493	
1	0	0	0	0	531	
2	0	0	0	0	489	
3	0	0	0	0	531	
4	0	0	0	0	488	
5	0	0	0	0	531	
6	0	0	0	0	484	
7	0	0	0	0	529	
8	0	0	0	0	487	
9	0	0	0	0	536	
10	0	0	0	0	491	
11	0	0	0	0	531	
12	0	0	0	0	491	
13	0	0	0	0	530	
14	0	0	0	0	487	
15	0	0	0	0	531	
0	0	0	0	0	491	
1	0	0	0	0	530	
2	0	0	0	0	487	
3	0	0	0	0	532	
4	0	0	0	0	487	
5	0	0	0	0	530	
6	0	0	0	0	492	
7	0	0	0	0	527	
8	0	0	0	0	489	
9	0	0	0	0	533	
10	0	0	0	0	492	
11	0	0	0	0	532	
12	0	0	0	0	487	
13	0	0	0	0	529	
14	0	0	0	0	487	
15	0	0	0	0	534	
0	0	0	0	0	481	
1	0	0	0	0	530	
2	0	0	0	0	486	
3	0	0	0	0	531	
4	0	0	0	0	491	
5	0	0	0	0	530	
6	0	0	0	0	496	
7	0	0	0	0	524	
8	0	0	0	0	481	
9	0	0	0	0	539	
10	0	0	0	0	494	
11	0	0	0	0	524	
12	0	0	0	0	466	
13	0	0	0	0	536	
14	0	0	0	0	484	
15	0	0	0	0	534	
0	0	0	0	0	483	
1	0	0	0	0	510	
2	0	0	0	0	494	
3	0	0	0	0	518	
4	0	0	0	0	486	
5	0	0	0	0	544	
6	0	0	0	0	495	
7	0	0	0	0	530	
8	0	0	0	0	504	
9	0	0	0	0	534	
10	0	0	0	0	492	
11	0	0	0	0	524	
12	0	0	0	0	491	
13	0	0	0	0	534	
14	0	0	0	0	442	
15	0	0	0	0	534	
0	0	0	0	0	492	
1	0	0	0	0	534	
2	0	0	0	0	478	
3	0	0	0	0	527	
4	0	0	0	0	506	
5	0	0	0	0	540	
6	0	0	0	0	484	
7	0	0	0	0	548	
8	0	0	0	0	486	
9	0	0	0	0	536	
10	0	0	0	0	504	
11	0	0	0	0	527	
12	0	0	0	0	489	
13	0	0	0	0	520	
14	0	0	0	0	487	
15	0	0	0	0	544	
0	0	0	0	0	466	
1	0	0	0	0	540	
2	0	0	0	0	482	
3	0	0	0	0	523	
4	0	0	0	0	487	
5	0	0	0	0	550	
6	0	0	0	0	481	
7	0	0	0	0	551	
8	0	0	0	0	485	
9	0	0	0	0	538	
10	0	0	0	0	490	
11	0	0	0	0	545	
12	0	0	0	0	478	
13	0	0	0	0	555	
14	0	0	0	0	477	
15	0	0	0	0	555	
0	0	0	0	0	503	
1	0	0	0	0	535	
2	0	0	0	0	489	
3	0	0	0	0	494	
4	0	0	0	0	486	
5	0	0	0	0	548	
6	0	0	0	0	462	
7	0	0	0	0	534	
8	0	0	0	0	478	
9	0	0	0	0	547	
10	0	0	0	0	493	
11	0	0	0	0	524	
12	0	0	0	0	483	
13	0	0	0	0	533	
14	0	0	0	0	496	
15	0	0	0	0	540	
0	0	0	0	0	473	
1	0	0	0	0	541	
2	0	0	0	0	478	
3	0	0	0	0	552	
4	0	0	0	0	463	
5	0	0	0	0	549	
6	0	0	0	0	420	
7	0	0	0	0	564	
8	0	0	0	0	480	
9	0	0	0	0	537	
10	0	0	0	0	494	
11	0	0	0	0	523	
12	0	0	0	0	489	
13	0	0	0	0	542	
14	0	0	0	0	473	
15	0	0	0	0	550	
0	0	0	0	0	483	
1	0	0	0	0	537	
2	0	0	0	0	490	
3	0	0	0	0	500	
4	0	0	0	0	503	
5	0	0	0	0	543	
6	0	0	0	0	491	
7	0	0	0	0	537	
8	0	0	0	0	491	
9	0	0	0	0	503	
10	0	0	0	0	495	
11	0	0	0	0	533	
12	0	0	0	0	497	
13	0	0	0	0	538	
14	0	0	0	0	492	
15	0	0	0	0	555	
0	0	0	0	0	432	
1	0	0	0	0	547	
2	0	0	0	0	480	
3	0	0	0	0	557	
4	0	0	0	0	500	
5	0	0	0	0	526	
6	0	0	0	0	474	
7	0	0	0	0	545	
8	0	0	0	0	499	
9	0	0	0	0	533	
10	0	0	0	0	481	
11	0	0	0	0	514	
12	0	0	0	0	484	
13	0	0	0	0	529	
14	0	0	0	0	497	
15	0	0	0	0	538	
0	0	0	0	0	484	
1	0	0	0	0	539	
2	0	0	0	0	466	
3	0	0	0	0	543	
4	0	0	0	0	455	
5	0	0	0	0	558	
6	0	0	0	0	470	
7	0	0	0	0	547	
8	0	0	0	0	476	
9	0	0	0	0	555	
10	0	0	0	0	472	
11	0	0	0	0	547	
12	0	0	0	0	500	
13	0	0	0	0	523	
14	0	0	0	0	487	
15	0	0	0	0	539	
0	0	0	0	0	485	
1	0	0	0	0	540	
2	0	0	0	0	488	
3	0	0	0	0	555	
4	0	0	0	0	494	
5	0	0	0	0	545	
6	0	0	0	0	455	
7	0	0	0	0	540	
8	0	0	0	0	471	
9	0	0	0	0	550	
10	0	0	0	0	479	
11	0	0	0	0	528	
12	0	0	0	0	494	
13	0	0	0	0	539	
14	0	0	0	0	489	
15	0	0	0	0	537	
0	0	0	0	0	468	
1	0	0	0	0	515	
2	0	0	0	0	499	
3	0	0	0	0	532	
4	0	0	0	0	499	
5	0	0	0	0	534	
6	0	0	0	0	467	
7	0	0	0	0	539	
8	0	0	0	0	486	
9	0	0	0	0	545	
10	0	0	0	0	479	
11	0	0	0	0	579	
12	0	0	0	0	496	
13	0	0	0	0	534	
14	0	0	0	0	484	
15	0	0	0	0	498	
0	0	0	0	0	453	
1	0	0	0	0	534	
2	0	0	0	0	476	
3	0	0	0	0	539	
4	0	0	0	0	545	
5	0	0	0	0	551	
6	0	0	0	0	486	
7	0	0	0	0	533	
8	0	0	0	0	469	
9	0	0	0	0	570	
10	0	0	0	0	457	
11	0	0	0	0	556	
12	0	0	0	0	508	
13	0	0	0	0	378	
14	0	0	0	0	487	
15	0	0	0	0	599	
0	0	0	0	0	215	
1	0	0	0	0	685	
2	0	0	0	0	448	
3	0	0	0	0	572	
4	0	0	0	0	537	
5	0	0	0	0	509	
6	0	0	0	0	499	
7	0	0	0	0	476	
8	0	0	0	0	484	
9	0	0	0	0	573	
10	0	0	0	0	466	
11	0	0	0	0	488	
12	0	0	0	0	486	
13	0	0	0	0	601	
14	0	0	0	0	508	
15	0	0	0	0	524	
0	0	0	0	0	599	
1	0	0	0	0	581	
2	0	0	0	0	430	
3	0	0	0	0	501	
4	0	0	0	0	538	
5	0	0	0	0	482	
6	0	0	0	0	359	
7	0	0	0	0	559	
8	0	0	0	0	415	
9	0	0	0	0	560	
10	0	0	0	0	398	
11	0	0	0	0	639	
12	0	0	0	0	596	
13	0	0	0	0	568	
14	0	0	0	0	492	
15	0	0	0	0	558	
0	0	0	0	0	536	
1	0	0	0	0	777	
2	0	0	0	0	300	
3	0	0	0	0	831	
4	0	0	0	0	718	
5	0	0	0	0	513	
6	0	0	0	0	299	
7	0	0	0	0	505	
8	0	0	0	0	190	
9	0	0	0	0	593	
10	0	0	0	0	551	
11	0	0	0	0	513	
12	0	0	0	0	630	
13	0	0	0	0	387	
14	0	0	0	0	559	
15	0	0	0	0	559	
0	0	0	0	0	425	
1	0	0	0	0	618	
2	0	0	0	0	475	
3	0	0	0	0	594	
4	0	0	0	0	568	
5	0	0	0	0	783	
6	0	0	0	0	400	
7	0	0	0	0	601	
8	0	0	0	0	417	
9	0	0	0	0	502	
10	0	0	0	0	463	
11	0	0	0	0	450	
12	0	0	0	0	527	
13	0	0	0	0	666	
14	0	0	0	0	300	
15	0	0	0	0	507	
0	0	0	0	0	535	
1	0	0	0	0	627	
2	0	0	0	0	551	
3	0	0	0	0	364	
4	0	0	0	0	342	
5	0	0	0	0	608	
6	0	0	0	0	377	
7	0	0	0	0	350	
8	0	0	0	0	549	
9	0	0	0	0	375	
10	0	0	0	0	361	
11	0	0	0	0	588	
12	0	0	0	0	566	
13	0	0	0	0	502	
14	0	0	0	0	447	
15	0	0	0	0	687	
0	0	0	0	0	94	
1	0	0	0	0	668	
2	0	0	0	0	583	
3	0	0	0	0	475	
4	0	0	0	0	487	
5	0	0	0	0	584	
6	0	0	0	0	623	
7	0	0	0	0	371	
8	0	0	0	0	360	
9	0	0	0	0	594	
10	0	0	0	0	327	
11	0	0	0	0	585	
12	0	0	0	0	439	
13	0	0	0	0	263	
14	0	0	0	0	534	
15	0	0	0	0	644	
0	0	0	0	0	527	
1	0	0	0	0	572	
2	0	0	0	0	557	
3	0	0	0	0	560	
4	0	0	0	0	496	
5	0	0	0	0	520	
6	0	0	0	0	335	
7	0	0	0	0	586	
8	0	0	0	0	388	
9	0	0	0	0	581	
10	0	0	0	0	573	
11	0	0	0	0	489	
12	0	0	0	0	477	
13	0	0	0	0	688	
14	0	0	0	0	478	
15	0	0	0	0	316	
0	0	0	0	0	565	
1	0	0	0	0	396	
2	0	0	0	0	426	
3	0	0	0	0	233	
4	0	0	0	0	534	
5	0	0	0	0	525	
6	0	0	0	0	391	
7	0	0	0	0	467	
8	0	0	0	0	504	
9	0	0	0	0	431	
10	0	0	0	0	334	
11	0	0	0	0	513	
12	0	0	0	0	549	
13	0	0	0	0	508	
14	0	0	0	0	497	
15	0	0	0	0	384	
0	0	0	0	0	533	
1	0	0	0	0	401	
2	0	0	0	0	609	
3	0	0	0	0	445	
4	0	0	0	0	527	
5	0	0	0	0	574	
6	0	0	0	0	509	
7	0	0	0	0	594	
8	0	0	0	0	493	
9	0	0	0	0	517	
10	0	0	0	0	637	
11	0	0	0	0	551	
12	0	0	0	0	469	
13	0	0	0	0	603	
14	0	0	0	0	281	
15	0	0	0	0	503	
0	0	0	0	0	498	
1	0	0	0	0	517	
2	0	0	0	0	483	
3	0	0	0	0	464	
4	0	0	0	0	494	
5	0	0	0	0	557	
6	0	0	0	0	483	
7	0	0	0	0	517	
8	0	0	0	0	528	
9	0	0	0	0	531	
10	0	0	0	0	488	
11	0	0	0	0	516	
12	0	0	0	0	500	
13	0	0	0	0	532	
14	0	0	0	0	504	
15	0	0	0	0	524	
0	0	0	0	0	501	
1	0	0	0	0	527	
2	0	0	0	0	488	
3	0	0	0	0	525	
4	0	0	0	0	495	
5	0	0	0	0	521	
6	0	0	0	0	477	
7	0	0	0	0	484	
8	0	0	0	0	470	
9	0	0	0	0	545	
10	0	0	0	0	497	
11	0	0	0	0	523	
12	0	0	0	0	496	
13	0	0	0	0	529	
14	0	0	0	0	495	
15	0	0	0	0	527	
0	0	0	0	0	488	
1	0	0	0	0	552	
2	0	0	0	0	500	
3	0	0	0	0	528	
4	0	0	0	0	497	
5	0	0	0	0	533	
6	0	0	0	0	506	
7	0	0	0	0	527	
8	0	0	0	0	489	
9	0	0	0	0	525	
10	0	0	0	0	495	
11	0	0	0	0	528	
12	0	0	0	0	479	
13	0	0	0	0	532	
14	0	0	0	0	516	
15	0	0	0	0	512	
0	0	0	0	0	498	
1	0	0	0	0	525	
2	0	0	0	0	492	
3	0	0	0	0	524	
4	0	0	0	0	494	
5	0	0	0	0	527	
6	0	0	0	0	484	
7	0	0	0	0	520	
8	0	0	0	0	476	
9	0	0	0	0	518	
10	0	0	0	0	486	
11	0	0	0	0	514	
12	0	0	0	0	499	
13	0	0	0	0	528	
14	0	0	0	0	487	
15	0	0	0	0	525	
0	0	0	0	0	487	
1	0	0	0	0	528	
2	0	0	0	0	489	
3	0	0	0	0	531	
4	0	0	0	0	503	
5	0	0	0	0	521	
6	0	0	0	0	491	
7	0	0	0	0	511	
8	0	0	0	0	469	
9	0	0	0	0	536	
10	0	0	0	0	494	
11	0	0	0	0	554	
12	0	0	0	0	499	
13	0	0	0	0	544	
14	0	0	0	0	492	
15	0	0	0	0	527	
0	0	0	0	0	495	
1	0	0	0	0	524	
2	0	0	0	0	509	
3	0	0	0	0	529	
4	0	0	0	0	478	
5	0	0	0	0	538	
6	0	0	0	0	500	
7	0	0	0	0	518	
8	0	0	0	0	498	
9	0	0	0	0	528	
10	0	0	0	0	495	
11	0	0	0	0	525	
12	0	0	0	0	480	
13	0	0	0	0	493	
14	0	0	0	0	502	
15	0	0	0	0	531	
0	0	0	0	0	499	
1	0	0	0	0	519	
2	0	0	0	0	501	
3	0	0	0	0	520	
4	0	0	0	0	498	
5	0	0	0	0	511	
6	0	0	0	0	479	
7	0	0	0	0	533	
8	0	0	0	0	498	
9	0	0	0	0	514	
10	0	0	0	0	493	
11	0	0	0	0	523	
12	0	0	0	0	514	
13	0	0	0	0	493	
14	0	0	0	0	514	
15	0	0	0	0	521	
0	0	0	0	0	506	
1	0	0	0	0	500	
2	0	0	0	0	510	
3	0	0	0	0	463	
4	0	0	0	0	512	
5	0	0	0	0	524	
6	0	0	0	0	500	
7	0	0	0	0	520	
8	0	0	0	0	500	
9	0	0	0	0	533	
10	0	0	0	0	501	
11	0	0	0	0	477	
12	0	0	0	0	514	
13	0	0	0	0	526	
14	0	0	0	0	497	
15	0	0	0	0	516	
0	0	0	0	0	505	
1	0	0	0	0	539	
2	0	0	0	0	477	
3	0	0	0	0	531	
4	0	0	0	0	498	
5	0	0	0	0	512	
6	0	0	0	0	538	
7	0	0	0	0	424	
8	0	0	0	0	519	
9	0	0	0	0	531	
10	0	0	0	0	496	
11	0	0	0	0	515	
12	0	0	0	0	498	
13	0	0	0	0	496	
14	0	0	0	0	466	
15	0	0	0	0	551	
0	0	0	0	0	502	
1	0	0	0	0	579	
2	0	0	0	0	461	
3	0	0	0	0	541	
4	0	0	0	0	499	
5	0	0	0	0	519	
6	0	0	0	0	527	
7	0	0	0	0	490	
8	0	0	0	0	530	
9	0	0	0	0	460	
10	0	0	0	0	510	
11	0	0	0	0	522	
12	0	0	0	0	503	
13	0	0	0	0	488	
14	0	0	0	0	548	
15	0	0	0	0	471	
0	0	0	0	0	531	
1	0	0	0	0	525	
2	0	0	0	0	500	
3	0	0	0	0	516	
4	0	0	0	0	498	
5	0	0	0	0	512	
6	0	0	0	0	509	
7	0	0	0	0	535	
8	0	0	0	0	481	
9	0	0	0	0	513	
10	0	0	0	0	497	
11	0	0	0	0	527	
12	0	0	0	0	506	
13	0	0	0	0	509	
14	0	0	0	0	518	
15	0	0	0	0	492	
0	0	0	0	0	514	
1	0	0	0	0	519	
2	0	0	0	0	516	
3	0	0	0	0	499	
4	0	0	0	0	508	
5	0	0	0	0	523	
6	0	0	0	0	496	
7	0	0	0	0	531	
8	0	0	0	0	491	
9	0	0	0	0	519	
10	0	0	0	0	505	
11	0	0	0	0	516	
12	0	0	0	0	501	
13	0	0	0	0	519	
14	0	0	0	0	498	
15	0	0	0	0	521	
0	0	0	0	0	475	
1	0	0	0	0	510	
2	0	0	0	0	511	
3	0	0	0	0	514	
4	0	0	0	0	498	
5	0	0	0	0	518	
6	0	0	0	0	502	
7	0	0	0	0	520	
8	0	0	0	0	496	
9	0	0	0	0	522	
10	0	0	0	0	501	
11	0	0	0	0	511	
12	0	0	0	0	498	
13	0	0	0	0	516	
14	0	0	0	0	510	
15	0	0	0	0	497	
0	0	0	0	0	508	
1	0	0	0	0	523	
2	0	0	0	0	511	
3	0	0	0	0	517	
4	0	0	0	0	502	
5	0	0	0	0	510	
6	0	0	0	0	508	
7	0	0	0	0	489	
8	0	0	0	0	505	
9	0	0	0	0	523	
10	0	0	0	0	500	
11	0	0	0	0	512	
12	0	0	0	0	504	
13	0	0	0	0	510	
14	0	0	0	0	493	
15	0	0	0	0	522	
0	0	0	0	0	505	
1	0	0	0	0	505	
2	0	0	0	0	507	
3	0	0	0	0	516	
4	0	0	0	0	499	
5	0	0	0	0	524	
6	0	0	0	0	491	
7	0	0	0	0	524	
8	0	0	0	0	503	
9	0	0	0	0	523	
10	0	0	0	0	509	
11	0	0	0	0	515	
12	0	0	0	0	502	
13	0	0	0	0	499	
14	0	0	0	0	505	
15	0	0	0	0	515	
0	0	0	0	0	501	
1	0	0	0	0	512	
2	0	0	0	0	499	
3	0	0	0	0	518	
4	0	0	0	0	496	
5	0	0	0	0	520	
6	0	0	0	0	501	
7	0	0	0	0	516	
8	0	0	0	0	493	
9	0	0	0	0	504	
10	0	0	0	0	504	
11	0	0	0	0	515	
12	0	0	0	0	499	
13	0	0	0	0	512	
14	0	0	0	0	503	
15	0	0	0	0	515	
0	0	0	0	0	504	
1	0	0	0	0	516	
2	0	0	0	0	510	
3	0	0	0	0	519	
4	0	0	0	0	497	
5	0	0	0	0	518	
6	0	0	0	0	501	
7	0	0	0	0	511	
8	0	0	0	0	501	
9	0	0	0	0	513	
10	0	0	0	0	501	
11	0	0	0	0	514	
12	0	0	0	0	500	
13	0	0	0	0	515	
14	0	0	0	0	507	
15	0	0	0	0	515	
0	0	0	0	0	498	
1	0	0	0	0	520	
2	0	0	0	0	503	
3	0	0	0	0	525	
4	0	0	0	0	483	
5	0	0	0	0	519	
6	0	0	0	0	488	
7	0	0	0	0	506	
8	0	0	0	0	510	
9	0	0	0	0	517	
10	0	0	0	0	506	
11	0	0	0	0	509	
12	0	0	0	0	503	
13	0	0	0	0	523	
14	0	0	0	0	486	
15	0	0	0	0	526	
0	0	0	0	0	510	
1	0	0	0	0	502	
2	0	0	0	0	487	
3	0	0	0	0	522	
4	0	0	0	0	504	
5	0	0	0	0	513	
6	0	0	0	0	503	
7	0	0	0	0	524	
8	0	0	0	0	498	
9	0	0	0	0	519	
10	0	0	0	0	503	
11	0	0	0	0	523	
12	0	0	0	0	496	
13	0	0	0	0	521	
14	0	0	0	0	502	
15	0	0	0	0	512	
0	0	0	0	0	515	
1	0	0	0	0	470	
2	0	0	0	0	523	
3	0	0	0	0	519	
4	0	0	0	0	489	
5	0	0	0	0	532	
6	0	0	0	0	502	
7	0	0	0	0	499	
8	0	0	0	0	510	
9	0	0	0	0	515	
10	0	0	0	0	507	
11	0	0	0	0	531	
12	0	0	0	0	495	
13	0	0	0	0	514	
14	0	0	0	0	503	
15	0	0	0	0	503	
0	0	0	0	0	505	
1	0	0	0	0	494	
2	0	0	0	0	512	
3	0	0	0	0	504	
4	0	0	0	0	508	
5	0	0	0	0	495	
6	0	0	0	0	513	
7	0	0	0	0	493	
8	0	0	0	0	508	
9	0	0	0	0	546	
10	0	0	0	0	463	
11	0	0	0	0	539	
12	0	0	0	0	493	
13	0	0	0	0	487	
14	0	0	0	0	510	
15	0	0	0	0	516	
0	0	0	0	0	505	
1	0	0	0	0	513	
2	0	0	0	0	504	
3	0	0	0	0	509	
4	0	0	0	0	535	
5	0	0	0	0	504	
6	0	0	0	0	490	
7	0	0	0	0	519	
8	0	0	0	0	507	
9	0	0	0	0	508	
10	0	0	0	0	517	
11	0	0	0	0	508	
12	0	0	0	0	545	
13	0	0	0	0	479	
14	0	0	0	0	515	
15	0	0	0	0	528	
0	0	0	0	0	472	
1	0	0	0	0	520	
2	0	0	0	0	534	
3	0	0	0	0	500	
4	0	0	0	0	502	
5	0	0	0	0	513	
6	0	0	0	0	503	
7	0	0	0	0	534	
8	0	0	0	0	487	
9	0	0	0	0	504	
10	0	0	0	0	507	
11	0	0	0	0	506	
12	0	0	0	0	512	
13	0	0	0	0	515	
14	0	0	0	0	511	
15	0	0	0	0	481	
0	0	0	0	0	504	
1	0	0	0	0	503	
2	0	0	0	0	493	
3	0	0	0	0	521	
4	0	0	0	0	499	
5	0	0	0	0	517	
6	0	0	0	0	512	
7	0	0	0	0	549	
8	0	0	0	0	474	
9	0	0	0	0	497	
10	0	0	0	0	516	
11	0	0	0	0	514	
12	0	0	0	0	495	
13	0	0	0	0	487	
14	0	0	0	0	531	
15	0	0	0	0	530	
0	0	0	0	0	499	
1	0	0	0	0	529	
2	0	0	0	0	523	
3	0	0	0	0	471	
4	0	0	0	0	516	
5	0	0	0	0	506	
6	0	0	0	0	510	
7	0	0	0	0	518	
8	0	0	0	0	503	
9	0	0	0	0	516	
10	0	0	0	0	516	
11	0	0	0	0	513	
12	0	0	0	0	510	
13	0	0	0	0	511	
14	0	0	0	0	504	
15	0	0	0	0	522	
0	0	0	0	0	478	
1	0	0	0	0	519	
2	0	0	0	0	496	
3	0	0	0	0	520	
4	0	0	0	0	507	
5	0	0	0	0	482	
6	0	0	0	0	510	
7	0	0	0	0	488	
8	0	0	0	0	519	
9	0	0	0	0	528	
10	0	0	0	0	502	
11	0	0	0	0	513	
12	0	0	0	0	514	
13	0	0	0	0	512	
14	0	0	0	0	479	
15	0	0	0	0	530	
0	0	0	0	0	488	
1	0	0	0	0	532	
2	0	0	0	0	513	
3	0	0	0	0	521	
4	0	0	0	0	507	
5	0	0	0	0	517	
6	0	0	0	0	500	
7	0	0	0	0	508	
8	0	0	0	0	509	
9	0	0	0	0	511	
10	0	0	0	0	489	
11	0	0	0	0	515	
12	0	0	0	0	492	
13	0	0	0	0	514	
14	0	0	0	0	503	
15	0	0	0	0	487	
0	0	0	0	0	512	
1	0	0	0	0	506	
2	0	0	0	0	490	
3	0	0	0	0	499	
4	0	0	0	0	496	
5	0	0	0	0	531	
6	0	0	0	0	508	
7	0	0	0	0	524	
8	0	0	0	0	509	
9	0	0	0	0	446	
10	0	0	0	0	522	
11	0	0	0	0	511	
12	0	0	0	0	509	
13	0	0	0	0	514	
14	0	0	0	0	495	
15	0	0	0	0	513	
0	0	0	0	0	488	
1	0	0	0	0	535	
2	0	0	0	0	491	
3	0	0	0	0	521	
4	0	0	0	0	453	
5	0	0	0	0	510	
6	0	0	0	0	523	
7	0	0	0	0	508	
8	0	0	0	0	497	
9	0	0	0	0	530	
10	0	0	0	0	463	
11	0	0	0	0	452	
12	0	0	0	0	497	
13	0	0	0	0	547	
14	0	0	0	0	365	
15	0	0	0	0	564	
0	0	0	0	0	474	
1	0	0	0	0	495	
2	0	0	0	0	475	
3	0	0	0	0	688	
4	0	0	0	0	467	
5	0	0	0	0	579	
6	0	0	0	0	646	
7	0	0	0	0	545	
8	0	0	0	0	502	
9	0	0	0	0	525	
10	0	0	0	0	520	
11	0	0	0	0	536	
12	0	0	0	0	541	
13	0	0	0	0	663	
14	0	0	0	0	571	
15	0	0	0	0	568	
0	0	0	0	0	537	
1	0	0	0	0	560	
2	0	0	0	0	497	
3	0	0	0	0	654	
4	0	0	0	0	653	
5	0	0	0	0	350	
6	0	0	0	0	552	
7	0	0	0	0	539	
8	0	0	0	0	517	
9	0	0	0	0	560	
10	0	0	0	0	557	
11	0	0	0	0	491	
12	0	0	0	0	447	
13	0	0	0	0	583	
14	0	0	0	0	489	
15	0	0	0	0	492	
0	0	0	0	0	399	
1	0	0	0	0	552	
2	0	0	0	0	425	
3	0	0	0	0	547	
4	0	0	0	0	486	
5	0	0	0	0	521	
6	0	0	0	0	546	
7	0	0	0	0	511	
8	0	0	0	0	680	
9	0	0	0	0	631	
10	0	0	0	0	521	
11	0	0	0	0	547	
12	0	0	0	0	591	
13	0	0	0	0	235	
14	0	0	0	0	497	
15	0	0	0	0	480	
0	0	0	0	0	584	
1	0	0	0	0	504	
2	0	0	0	0	473	
3	0	0	0	0	643	
4	0	0	0	0	476	
5	0	0	0	0	646	
6	0	0	0	0	565	
7	0	0	0	0	493	
8	0	0	0	0	389	
9	0	0	0	0	534	
10	0	0	0	0	695	
11	0	0	0	0	500	
12	0	0	0	0	505	
13	0	0	0	0	587	
14	0	0	0	0	587	
15	0	0	0	0	555	
0	0	0	0	0	471	
1	0	0	0	0	572	
2	0	0	0	0	306	
3	0	0	0	0	620	
4	0	0	0	0	516	
5	0	0	0	0	666	
6	0	0	0	0	522	
7	0	0	0	0	468	
8	0	0	0	0	286	
9	0	0	0	0	546	
10	0	0	0	0	640	
11	0	0	0	0	467	
12	0	0	0	0	572	
13	0	0	0	0	595	
14	0	0	0	0	524	
15	0	0	0	0	599	
0	0	0	0	0	427	
1	0	0	0	0	558	
2	0	0	0	0	550	
3	0	0	0	0	352	
4	0	0	0	0	625	
5	0	0	0	0	401	
6	0	0	0	0	633	
7	0	0	0	0	327	
8	0	0	0	0	394	
9	0	0	0	0	570	
10	0	0	0	0	504	
11	0	0	0	0	509	
12	0	0	0	0	355	
13	0	0	0	0	576	
14	0	0	0	0	527	
15	0	0	0	0	500	
0	0	0	0	0	530	
1	0	0	0	0	527	
2	0	0	0	0	479	
3	0	0	0	0	676	
4	0	0	0	0	457	
5	0	0	0	0	582	
6	0	0	0	0	538	
7	0	0	0	0	448	
8	0	0	0	0	839	
9	0	0	0	0	410	
10	0	0	0	0	585	
11	0	0	0	0	607	
12	0	0	0	0	508	
13	0	0	0	0	451	
14	0	0	0	0	463	
15	0	0	0	0	413	
0	0	0	0	0	528	
1	0	0	0	0	601	
2	0	0	0	0	480	
3	0	0	0	0	640	
4	0	0	0	0	644	
5	0	0	0	0	511	
6	0	0	0	0	291	
7	0	0	0	0	526	
8	0	0	0	0	369	
9	0	0	0	0	462	
10	0	0	0	0	588	
11	0	0	0	0	543	
12	0	0	0	0	547	
13	0	0	0	0	496	
14	0	0	0	0	440	
15	0	0	0	0	505	
0	0	0	0	0	482	
1	0	0	0	0	499	
2	0	0	0	0	654	
3	0	0	0	0	464	
4	0	0	0	0	553	
5	0	0	0	0	533	
6	0	0	0	0	371	
7	0	0	0	0	548	
8	0	0	0	0	448	
9	0	0	0	0	143	
10	0	0	0	0	434	
11	0	0	0	0	267	
12	0	0	0	0	457	
13	0	0	0	0	524	
14	0	0	0	0	468	
15	0	0	0	0	627	
0	0	0	0	0	486	
1	0	0	0	0	609	
2	0	0	0	0	570	
3	0	0	0	0	391	
4	0	0	0	0	600	
5	0	0	0	0	526	
6	0	0	0	0	465	
7	0	0	0	0	499	
8	0	0	0	0	146	
9	0	0	0	0	706	
10	0	0	0	0	574	
11	0	0	0	0	372	
12	0	0	0	0	414	
13	0	0	0	0	608	
14	0	0	0	0	679	
15	0	0	0	0	595	
0	0	0	0	0	607	
1	0	0	0	0	443	
2	0	0	0	0	382	
3	0	0	0	0	541	
4	0	0	0	0	612	
5	0	0	0	0	578	
6	0	0	0	0	649	
7	0	0	0	0	621	
8	0	0	0	0	627	
9	0	0	0	0	488	
10	0	0	0	0	533	
11	0	0	0	0	463	
12	0	0	0	0	628	
13	0	0	0	0	625	
14	0	0	0	0	558	
15	0	0	0	0	372	
0	0	0	0	0	550	
1	0	0	0	0	575	
2	0	0	0	0	540	
3	0	0	0	0	499	
4	0	0	0	0	597	
5	0	0	0	0	566	
6	0	0	0	0	669	
7	0	0	0	0	532	
8	0	0	0	0	576	
9	0	0	0	0	569	
10	0	0	0	0	507	
11	0	0	0	0	524	
12	0	0	0	0	632	
13	0	0	0	0	593	
14	0	0	0	0	320	
15	0	0	0	0	690	
0	0	0	0	0	553	
1	0	0	0	0	640	
2	0	0	0	0	630	
3	0	0	0	0	548	
4	0	0	0	0	136	
5	0	0	0	0	583	
6	0	0	0	0	511	
7	0	0	0	0	480	
8	0	0	0	0	639	
9	0	0	0	0	563	
10	0	0	0	0	478	
11	0	0	0	0	545	
12	0	0	0	0	645	
13	0	0	0	0	489	
14	0	0	0	0	372	
15	0	0	0	0	606	
0	0	0	0	0	642	
1	0	0	0	0	515	
2	0	0	0	0	472	
3	0	0	0	0	458	
4	0	0	0	0	594	
5	0	0	0	0	553	
6	0	0	0	0	495	
7	0	0	0	0	637	
8	0	0	0	0	700	
9	0	0	0	0	504	
10	0	0	0	0	430	
11	0	0	0	0	423	
12	0	0	0	0	518	
13	0	0	0	0	547	
14	0	0	0	0	351	
15	0	0	0	0	515	
0	0	0	0	0	768	
1	0	0	0	0	356	
2	0	0	0	0	602	
3	0	0	0	0	361	
4	0	0	0	0	613	
5	0	0	0	0	460	
6	0	0	0	0	467	
7	0	0	0	0	470	
8	0	0	0	0	541	
9	0	0	0	0	555	
10	0	0	0	0	532	
11	0	0	0	0	474	
12	0	0	0	0	392	
13	0	0	0	0	557	
14	0	0	0	0	607	
15	0	0	0	0	473	
0	0	0	0	0	503	
1	0	0	0	0	455	
2	0	0	0	0	530	
3	0	0	0	0	583	
4	0	0	0	0	446	
5	0	0	0	0	665	
6	0	0	0	0	545	
7	0	0	0	0	489	
8	0	0	0	0	564	
9	0	0	0	0	550	
10	0	0	0	0	570	
11	0	0	0	0	546	
12	0	0	0	0	574	
13	0	0	0	0	345	
14	0	0	0	0	504	
15	0	0	0	0	564	
0	0	0	0	0	547	
1	0	0	0	0	474	
2	0	0	0	0	538	
3	0	0	0	0	469	
4	0	0	0	0	509	
5	0	0	0	0	500	
6	0	0	0	0	517	
7	0	0	0	0	498	
8	0	0	0	0	519	
9	0	0	0	0	435	
10	0	0	0	0	521	
11	0	0	0	0	496	
12	0	0	0	0	480	
13	0	0	0	0	509	
14	0	0	0	0	539	
15	0	0	0	0	527	
0	0	0	0	0	548	
1	0	0	0	0	500	
2	0	0	0	0	520	
3	0	0	0	0	512	
4	0	0	0	0	517	
5	0	0	0	0	466	
6	0	0	0	0	518	
7	0	0	0	0	499	
8	0	0	0	0	539	
9	0	0	0	0	510	
10	0	0	0	0	491	
11	0	0	0	0	542	
12	0	0	0	0	534	
13	0	0	0	0	527	
14	0	0	0	0	504	
15	0	0	0	0	501	
0	0	0	0	0	517	
1	0	0	0	0	496	
2	0	0	0	0	521	
3	0	0	0	0	484	
4	0	0	0	0	509	
5	0	0	0	0	511	
6	0	0	0	0	511	
7	0	0	0	0	507	
8	0	0	0	0	509	
9	0	0	0	0	504	
10	0	0	0	0	495	
11	0	0	0	0	496	
12	0	0	0	0	500	
13	0	0	0	0	497	
14	0	0	0	0	504	
15	0	0	0	0	499	
0	0	0	0	0	495	
1	0	0	0	0	489	
2	0	0	0	0	504	
3	0	0	0	0	481	
4	0	0	0	0	492	
5	0	0	0	0	476	
6	0	0	0	0	492	
7	0	0	0	0	503	
8	0	0	0	0	512	
9	0	0	0	0	473	
10	0	0	0	0	521	
11	0	0	0	0	497	
12	0	0	0	0	504	
13	0	0	0	0	512	
14	0	0	0	0	516	
15	0	0	0	0	498	
0	0	0	0	0	524	
1	0	0	0	0	521	
2	0	0	0	0	509	
3	0	0	0	0	498	
4	0	0	0	0	517	
5	0	0	0	0	520	
6	0	0	0	0	521	
7	0	0	0	0	491	
8	0	0	0	0	511	
9	0	0	0	0	496	
10	0	0	0	0	513	
11	0	0	0	0	506	
12	0	0	0	0	512	
13	0	0	0	0	502	
14	0	0	0	0	513	
15	0	0	0	0	518	
0	0	0	0	0	536	
1	0	0	0	0	497	
2	0	0	0	0	521	
3	0	0	0	0	505	
4	0	0	0	0	503	
5	0	0	0	0	449	
6	0	0	0	0	488	
7	0	0	0	0	420	
8	0	0	0	0	516	
9	0	0	0	0	534	
10	0	0	0	0	510	
11	0	0	0	0	476	
12	0	0	0	0	486	
13	0	0	0	0	547	
14	0	0	0	0	547	
15	0	0	0	0	540	
0	0	0	0	0	507	
1	0	0	0	0	517	
2	0	0	0	0	521	
3	0	0	0	0	540	
4	0	0	0	0	563	
5	0	0	0	0	548	
6	0	0	0	0	560	
7	0	0	0	0	506	
8	0	0	0	0	528	
9	0	0	0	0	464	
10	0	0	0	0	507	
11	0	0	0	0	514	
12	0	0	0	0	477	
13	0	0	0	0	505	
14	0	0	0	0	515	
15	0	0	0	0	479	
0	0	0	0	0	519	
1	0	0	0	0	476	
2	0	0	0	0	504	
3	0	0	0	0	517	
4	0	0	0	0	504	
5	0	0	0	0	481	
6	0	0	0	0	526	
7	0	0	0	0	565	
8	0	0	0	0	477	
9	0	0	0	0	517	
10	0	0	0	0	518	
11	0	0	0	0	479	
12	0	0	0	0	538	
13	0	0	0	0	469	
14	0	0	0	0	518	
15	0	0	0	0	512	
0	0	0	0	0	512	
1	0	0	0	0	504	
2	0	0	0	0	512	
3	0	0	0	0	497	
4	0	0	0	0	499	
5	0	0	0	0	499	
6	0	0	0	0	517	
7	0	0	0	0	525	
8	0	0	0	0	497	
9	0	0	0	0	514	
10	0	0	0	0	526	
11	0	0	0	0	489	
12	0	0	0	0	529	
13	0	0	0	0	506	
14	0	0	0	0	512	
15	0	0	0	0	508	
0	0	0	0	0	513	
1	0	0	0	0	506	
2	0	0	0	0	504	
3	0	0	0	0	505	
4	0	0	0	0	517	
5	0	0	0	0	475	
6	0	0	0	0	522	
7	0	0	0	0	541	
8	0	0	0	0	455	
9	0	0	0	0	529	
10	0	0	0	0	522	
11	0	0	0	0	506	
12	0	0	0	0	524	
13	0	0	0	0	491	
14	0	0	0	0	517	
15	0	0	0	0	501	
0	0	0	0	0	516	
1	0	0	0	0	505	
2	0	0	0	0	506	
3	0	0	0	0	507	
4	0	0	0	0	510	
5	0	0	0	0	498	
6	0	0	0	0	513	
7	0	0	0	0	507	
8	0	0	0	0	509	
9	0	0	0	0	503	
10	0	0	0	0	508	
11	0	0	0	0	508	
12	0	0	0	0	489	
13	0	0	0	0	513	
14	0	0	0	0	510	
15	0	0	0	0	506	
0	0	0	0	0	512	
1	0	0	0	0	506	
2	0	0	0	0	510	
3	0	0	0	0	506	
4	0	0	0	0	508	
5	0	0	0	0	510	
6	0	0	0	0	513	
7	0	0	0	0	505	
8	0	0	0	0	508	
9	0	0	0	0	497	
10	0	0	0	0	510	
11	0	0	0	0	508	
12	0	0	0	0	506	
13	0	0	0	0	505	
14	0	0	0	0	504	
15	0	0	0	0	508	
0	0	0	0	0	508	
1	0	0	0	0	502	
2	0	0	0	0	503	
3	0	0	0	0	513	
4	0	0	0	0	490	
5	0	0	0	0	512	
6	0	0	0	0	513	
7	0	0	0	0	502	
8	0	0	0	0	511	
9	0	0	0	0	507	
10	0	0	0	0	500	
11	0	0	0	0	516	
12	0	0	0	0	513	
13	0	0	0	0	502	
14	0	0	0	0	508	
15	0	0	0	0	506	
0	0	0	0	0	508	
1	0	0	0	0	505	
2	0	0	0	0	511	
3	0	0	0	0	506	
4	0	0	0	0	509	
5	0	0	0	0	505	
6	0	0	0	0	509	
7	0	0	0	0	507	
8	0	0	0	0	507	
9	0	0	0	0	502	
10	0	0	0	0	514	
11	0	0	0	0	510	
12	0	0	0	0	505	
13	0	0	0	0	510	
14	0	0	0	0	509	
15	0	0	0	0	506	
0	0	0	0	0	510	
1	0	0	0	0	504	
2	0	0	0	0	508	
3	0	0	0	0	506	
4	0	0	0	0	508	
5	0	0	0	0	507	
6	0	0	0	0	511	
7	0	0	0	0	506	
8	0	0	0	0	514	
9	0	0	0	0	505	
10	0	0	0	0	508	
11	0	0	0	0	504	
12	0	0	0	0	510	
13	0	0	0	0	504	
14	0	0	0	0	512	
15	0	0	0	0	502	
0	0	0	0	0	513	
1	0	0	0	0	505	
2	0	0	0	0	509	
3	0	0	0	0	504	
4	0	0	0	0	511	
5	0	0	0	0	503	
6	0	0	0	0	515	
7	0	0	0	0	505	
8	0	0	0	0	511	
9	0	0	0	0	505	
10	0	0	0	0	508	
11	0	0	0	0	505	
12	0	0	0	0	514	
13	0	0	0	0	503	
14	0	0	0	0	511	
15	0	0	0	0	505	
0	0	0	0	0	510	
1	0	0	0	0	507	
2	0	0	0	0	513	
3	0	0	0	0	503	
4	0	0	0	0	511	
5	0	0	0	0	504	
6	0	0	0	0	509	
7	0	0	0	0	504	
8	0	0	0	0	511	
9	0	0	0	0	502	
10	0	0	0	0	511	
11	0	0	0	0	505	
12	0	0	0	0	508	
13	0	0	0	0	506	
14	0	0	0	0	510	
15	0	0	0	0	505	
0	0	0	0	0	508	
1	0	0	0	0	502	
2	0	0	0	0	510	
3	0	0	0	0	504	
4	0	0	0	0	511	
5	0	0	0	0	504	
6	0	0	0	0	507	
7	0	0	0	0	505	
8	0	0	0	0	510	
9	0	0	0	0	505	
10	0	0	0	0	510	
11	0	0	0	0	505	
12	0	0	0	0	511	
13	0	0	0	0	504	
14	0	0	0	0	508	
15	0	0	0	0	504	
0	0	0	0	0	507	
1	0	0	0	0	503	
2	0	0	0	0	511	
3	0	0	0	0	504	
4	0	0	0	0	511	
5	0	0	0	0	504	
6	0	0	0	0	508	
7	0	0	0	0	504	
8	0	0	0	0	511	
9	0	0	0	0	504	
10	0	0	0	0	510	
11	0	0	0	0	506	
12	0	0	0	0	510	
13	0	0	0	0	503	
14	0	0	0	0	510	
15	0	0	0	0	504	
0	0	0	0	0	511	
1	0	0	0	0	504	
2	0	0	0	0	515	
3	0	0	0	0	496	
4	0	0	0	0	513	
5	0	0	0	0	531	
6	0	0	0	0	475	
7	0	0	0	0	510	
8	0	0	0	0	518	
9	0	0	0	0	496	
10	0	0	0	0	512	
11	0	0	0	0	509	
12	0	0	0	0	477	
13	0	0	0	0	513	
14	0	0	0	0	514	
15	0	0	0	0	505	
0	0	0	0	0	505	
1	0	0	0	0	500	
2	0	0	0	0	512	
3	0	0	0	0	501	
4	0	0	0	0	514	
5	0	0	0	0	500	
6	0	0	0	0	505	
7	0	0	0	0	518	
8	0	0	0	0	488	
9	0	0	0	0	518	
10	0	0	0	0	519	
11	0	0	0	0	505	
12	0	0	0	0	505	
13	0	0	0	0	525	
14	0	0	0	0	498	
15	0	0	0	0	503	
0	0	0	0	0	513	
1	0	0	0	0	509	
2	0	0	0	0	512	
3	0	0	0	0	505	
4	0	0	0	0	532	
5	0	0	0	0	498	
6	0	0	0	0	516	
7	0	0	0	0	497	
8	0	0	0	0	507	
9	0	0	0	0	540	
10	0	0	0	0	479	
11	0	0	0	0	523	
12	0	0	0	0	512	
13	0	0	0	0	507	
14	0	0	0	0	504	
15	0	0	0	0	517	
0	0	0	0	0	505	
1	0	0	0	0	500	
2	0	0	0	0	519	
3	0	0	0	0	497	
4	0	0	0	0	515	
5	0	0	0	0	496	
6	0	0	0	0	510	
7	0	0	0	0	511	
8	0	0	0	0	505	
9	0	0	0	0	508	
10	0	0	0	0	510	
11	0	0	0	0	502	
12	0	0	0	0	513	
13	0	0	0	0	519	
14	0	0	0	0	515	
15	0	0	0	0	500	
0	0	0	0	0	489	
1	0	0	0	0	510	
2	0	0	0	0	512	
3	0	0	0	0	505	
4	0	0	0	0	524	
5	0	0	0	0	447	
6	0	0	0	0	521	
7	0	0	0	0	510	
8	0	0	0	0	506	
9	0	0	0	0	500	
10	0	0	0	0	528	
11	0	0	0	0	494	
12	0	0	0	0	530	
13	0	0	0	0	488	
14	0	0	0	0	508	
15	0	0	0	0	513	
0	0	0	0	0	477	
1	0	0	0	0	487	
2	0	0	0	0	557	
3	0	0	0	0	464	
4	0	0	0	0	518	
5	0	0	0	0	500	
6	0	0	0	0	491	
7	0	0	0	0	508	
8	0	0	0	0	543	
9	0	0	0	0	481	
10	0	0	0	0	534	
11	0	0	0	0	483	
12	0	0	0	0	525	
13	0	0	0	0	498	
14	0	0	0	0	523	
15	0	0	0	0	502	
0	0	0	0	0	533	
1	0	0	0	0	499	
2	0	0	0	0	627	
3	0	0	0	0	442	
4	0	0	0	0	564	
5	0	0	0	0	453	
6	0	0	0	0	540	
7	0	0	0	0	509	
8	0	0	0	0	504	
9	0	0	0	0	498	
10	0	0	0	0	464	
11	0	0	0	0	502	
12	0	0	0	0	544	
13	0	0	0	0	497	
14	0	0	0	0	524	
15	0	0	0	0	533	
0	0	0	0	0	504	
1	0	0	0	0	492	
2	0	0	0	0	495	
3	0	0	0	0	483	
4	0	0	0	0	525	
5	0	0	0	0	420	
6	0	0	0	0	541	
7	0	0	0	0	507	
8	0	0	0	0	510	
9	0	0	0	0	491	
10	0	0	0	0	438	
11	0	0	0	0	437	
12	0	0	0	0	496	
13	0	0	0	0	705	
14	0	0	0	0	490	
15	0	0	0	0	469	
0	0	0	0	0	134	
1	0	0	0	0	607	
2	0	0	0	0	550	
3	0	0	0	0	467	
4	0	0	0	0	853	
5	0	0	0	0	425	
6	0	0	0	0	708	
7	0	0	0	0	536	
8	0	0	0	0	280	
9	0	0	0	0	342	
10	0	0	0	0	574	
11	0	0	0	0	355	
12	0	0	0	0	614	
13	0	0	0	0	455	
14	0	0	0	0	192	
15	0	0	0	0	611	
0	0	0	0	0	568	
1	0	0	0	0	598	
2	0	0	0	0	462	
3	0	0	0	0	447	
4	0	0	0	0	623	
5	0	0	0	0	377	
6	0	0	0	0	377	
7	0	0	0	0	744	
8	0	0	0	0	375	
9	0	0	0	0	425	
10	0	0	0	0	563	
11	0	0	0	0	671	
12	0	0	0	0	585	
13	0	0	0	0	519	
14	0	0	0	0	42	
15	0	0	0	0	523	
0	0	0	0	0	547	
1	0	0	0	0	750	
2	0	0	0	0	769	
3	0	0	0	0	568	
4	0	0	0	0	415	
5	0	0	0	0	334	
6	0	0	0	0	721	
7	0	0	0	0	498	
8	0	0	0	0	657	
9	0	0	0	0	510	
10	0	0	0	0	0	
11	0	0	0	0	431	
12	0	0	0	0	636	
13	0	0	0	0	497	
14	0	0	0	0	512	
15	0	0	0	0	679	
0	0	0	0	0	710	
1	0	0	0	0	796	
2	0	0	0	0	438	
3	0	0	0	0	428	
4	0	0	0	0	533	
5	0	0	0	0	496	
6	0	0	0	0	512	
7	0	0	0	0	0	
8	0	0	0	0	426	
9	0	0	0	0	520	
10	0	0	0	0	721	
11	0	0	0	0	561	
12	0	0	0	0	520	
13	0	0	0	0	268	
14	0	0	0	0	758	
15	0	0	0	0	456	
0	0	0	0	0	463	
1	0	0	0	0	432	
2	0	0	0	0	488	
3	0	0	0	0	570	
4	0	0	0	0	526	
5	0	0	0	0	593	
6	0	0	0	0	654	
7	0	0	0	0	557	
8	0	0	0	0	505	
9	0	0	0	0	525	
10	0	0	0	0	428	
11	0	0	0	0	596	
12	0	0	0	0	726	
13	0	0	0	0	591	
14	0	0	0	0	463	
15	0	0	0	0	477	
0	0	0	0	0	602	
1	0	0	0	0	431	
2	0	0	0	0	537	
3	0	0	0	0	474	
4	0	0	0	0	407	
5	0	0	0	0	675	
6	0	0	0	0	410	
7	0	0	0	0	435	
8	0	0	0	0	627	
9	0	0	0	0	469	
10	0	0	0	0	377	
11	0	0	0	0	541	
12	0	0	0	0	594	
13	0	0	0	0	559	
14	0	0	0	0	446	
15	0	0	0	0	408	
0	0	0	0	0	199	
1	0	0	0	0	401	
2	0	0	0	0	489	
3	0	0	0	0	521	
4	0	0	0	0	475	
5	0	0	0	0	242	
6	0	0	0	0	488	
7	0	0	0	0	377	
8	0	0	0	0	723	
9	0	0	0	0	1014	
10	0	0	0	0	551	
11	0	0	0	0	526	
12	0	0	0	0	401	
13	0	0	0	0	120	
14	0	0	0	0	501	
15	0	0	0	0	522	
0	0	0	0	0	516	
1	0	0	0	0	270	
2	0	0	0	0	434	
3	0	0	0	0	553	
4	0	0	0	0	520	
5	0	0	0	0	536	
6	0	0	0	0	390	
7	0	0	0	0	572	
8	0	0	0	0	455	
9	0	0	0	0	423	
10	0	0	0	0	780	
11	0	0	0	0	448	
12	0	0	0	0	605	
13	0	0	0	0	408	
14	0	0	0	0	647	
15	0	0	0	0	556	
0	0	0	0	0	406	
1	0	0	0	0	543	
2	0	0	0	0	0	
3	0	0	0	0	500	
4	0	0	0	0	616	
5	0	0	0	0	430	
6	0	0	0	0	520	
7	0	0	0	0	340	
8	0	0	0	0	103	
9	0	0	0	0	653	
10	0	0	0	0	449	
11	0	0	0	0	543	
12	0	0	0	0	669	
13	0	0	0	0	526	
14	0	0	0	0	526	
15	0	0	0	0	586	
0	0	0	0	0	294	
1	0	0	0	0	446	
2	0	0	0	0	446	
3	0	0	0	0	588	
4	0	0	0	0	343	
5	0	0	0	0	540	
6	0	0	0	0	597	
7	0	0	0	0	272	
8	0	0	0	0	590	
9	0	0	0	0	570	
10	0	0	0	0	474	
11	0	0	0	0	469	
12	0	0	0	0	697	
13	0	0	0	0	642	
14	0	0	0	0	410	
15	0	0	0	0	513	
0	0	0	0	0	482	
1	0	0	0	0	515	
2	0	0	0	0	407	
3	0	0	0	0	585	
4	0	0	0	0	558	
5	0	0	0	0	238	
6	0	0	0	0	399	
7	0	0	0	0	491	
8	0	0	0	0	496	
9	0	0	0	0	471	
10	0	0	0	0	565	
11	0	0	0	0	481	
12	0	0	0	0	476	
13	0	0	0	0	507	
14	0	0	0	0	502	
15	0	0	0	0	541	
0	0	0	0	0	560	
1	0	0	0	0	485	
2	0	0	0	0	686	
3	0	0	0	0	507	
4	0	0	0	0	411	
5	0	0	0	0	526	
6	0	0	0	0	726	
7	0	0	0	0	384	
8	0	0	0	0	211	
9	0	0	0	0	391	
10	0	0	0	0	555	
11	0	0	0	0	393	
12	0	0	0	0	531	
13	0	0	0	0	707	
14	0	0	0	0	265	
15	0	0	0	0	495	
0	0	0	0	0	575	
1	0	0	0	0	398	
2	0	0	0	0	407	
3	0	0	0	0	542	
4	0	0	0	0	419	
5	0	0	0	0	546	
6	0	0	0	0	459	
7	0	0	0	0	266	
8	0	0	0	0	594	
9	0	0	0	0	513	
10	0	0	0	0	530	
11	0	0	0	0	529	
12	0	0	0	0	514	
13	0	0	0	0	401	
14	0	0	0	0	481	
15	0	0	0	0	460	
0	0	0	0	0	612	
1	0	0	0	0	716	
2	0	0	0	0	158	
3	0	0	0	0	598	
4	0	0	0	0	681	
5	0	0	0	0	564	
6	0	0	0	0	625	
7	0	0	0	0	369	
8	0	0	0	0	660	
9	0	0	0	0	646	
10	0	0	0	0	601	
11	0	0	0	0	501	
12	0	0	0	0	551	
13	0	0	0	0	475	
14	0	0	0	0	502	
15	0	0	0	0	503	
0	0	0	0	0	610	
1	0	0	0	0	648	
2	0	0	0	0	520	
3	0	0	0	0	292	
4	0	0	0	0	502	
5	0	0	0	0	642	
6	0	0	0	0	569	
7	0	0	0	0	441	
8	0	0	0	0	544	
9	0	0	0	0	482	
10	0	0	0	0	499	
11	0	0	0	0	306	
12	0	0	0	0	670	
13	0	0	0	0	472	
14	0	0	0	0	568	
15	0	0	0	0	502	
0	0	0	0	0	552	
1	0	0	0	0	487	
2	0	0	0	0	545	
3	0	0	0	0	112	
4	0	0	0	0	612	
5	0	0	0	0	380	
6	0	0	0	0	540	
7	0	0	0	0	383	
8	0	0	0	0	533	
9	0	0	0	0	404	
10	0	0	0	0	625	
11	0	0	0	0	529	
12	0	0	0	0	437	
13	0	0	0	0	496	
14	0	0	0	0	438	
15	0	0	0	0	589	
0	0	0	0	0	497	
1	0	0	0	0	464	
2	0	0	0	0	571	
3	0	0	0	0	366	
4	0	0	0	0	516	
5	0	0	0	0	502	
6	0	0	0	0	558	
7	0	0	0	0	555	
8	0	0	0	0	579	
9	0	0	0	0	379	
10	0	0	0	0	478	
11	0	0	0	0	453	
12	0	0	0	0	492	
13	0	0	0	0	561	
14	0	0	0	0	437	
15	0	0	0	0	247	
0	0	0	0	0	854	
1	0	0	0	0	660	
2	0	0	0	0	376	
3	0	0	0	0	523	
4	0	0	0	0	511	
5	0	0	0	0	411	
6	0	0	0	0	471	
7	0	0	0	0	410	
8	0	0	0	0	573	
9	0	0	0	0	534	
10	0	0	0	0	515	
11	0	0	0	0	626	
12	0	0	0	0	591	
13	0	0	0	0	427	
14	0	0	0	0	650	
15	0	0	0	0	519	
0	0	0	0	0	547	
1	0	0	0	0	644	
2	0	0	0	0	485	
3	0	0	0	0	436	
4	0	0	0	0	537	
5	0	0	0	0	505	
6	0	0	0	0	522	
7	0	0	0	0	275	
8	0	0	0	0	542	
9	0	0	0	0	381	
10	0	0	0	0	505	
11	0	0	0	0	392	
12	0	0	0	0	757	
13	0	0	0	0	563	
14	0	0	0	0	592	
15	0	0	0	0	471	
0	0	0	0	0	633	
1	0	0	0	0	443	
2	0	0	0	0	407	
3	0	0	0	0	403	
4	0	0	0	0	540	
5	0	0	0	0	385	
6	0	0	0	0	495	
7	0	0	0	0	465	
8	0	0	0	0	401	
9	0	0	0	0	522	
10	0	0	0	0	502	
11	0	0	0	0	273	
12	0	0	0	0	358	
13	0	0	0	0	576	
14	0	0	0	0	592	
15	0	0	0	0	556	
0	0	0	0	0	428	
1	0	0	0	0	541	
2	0	0	0	0	799	
3	0	0	0	0	588	
4	0	0	0	0	532	
5	0	0	0	0	478	
6	0	0	0	0	447	
7	0	0	0	0	289	
8	0	0	0	0	771	
9	0	0	0	0	567	
10	0	0	0	0	527	
11	0	0	0	0	684	
12	0	0	0	0	612	
13	0	0	0	0	400	
14	0	0	0	0	509	
15	0	0	0	0	507	
0	0	0	0	0	703	
1	0	0	0	0	399	
2	0	0	0	0	575	
3	0	0	0	0	547	
4	0	0	0	0	570	
5	0	0	0	0	546	
6	0	0	0	0	434	
7	0	0	0	0	523	
8	0	0	0	0	58	
9	0	0	0	0	627	
10	0	0	0	0	560	
11	0	0	0	0	505	
12	0	0	0	0	591	
13	0	0	0	0	397	
14	0	0	0	0	607	
15	0	0	0	0	636	
0	0	0	0	0	404	
1	0	0	0	0	492	
2	0	0	0	0	321	
3	0	0	0	0	537	
4	0	0	0	0	512	
5	0	0	0	0	575	
6	0	0	0	0	567	
7	0	0	0	0	608	
8	0	0	0	0	668	
9	0	0	0	0	372	
10	0	0	0	0	499	
11	0	0	0	0	159	
12	0	0	0	0	600	
13	0	0	0	0	558	
14	0	0	0	0	542	
15	0	0	0	0	431	
0	0	0	0	0	651	
1	0	0	0	0	654	
2	0	0	0	0	339	
3	0	0	0	0	648	
4	0	0	0	0	707	
5	0	0	0	0	0	
6	0	0	0	0	667	
7	0	0	0	0	564	
8	0	0	0	0	562	
9	0	0	0	0	468	
10	0	0	0	0	638	
11	0	0	0	0	683	
12	0	0	0	0	550	
13	0	0	0	0	291	
14	0	0	0	0	595	
15	0	0	0	0	362	
0	0	0	0	0	491	
1	0	0	0	0	281	
2	0	0	0	0	663	
3	0	0	0	0	529	
4	0	0	0	0	357	
5	0	0	0	0	535	
6	0	0	0	0	489	
7	0	0	0	0	262	
8	0	0	0	0	502	
9	0	0	0	0	537	
10	0	0	0	0	483	
11	0	0	0	0	548	
12	0	0	0	0	0	
13	0	0	0	0	665	
14	0	0	0	0	477	
15	0	0	0	0	512	
0	0	0	0	0	460	
1	0	0	0	0	145	
2	0	0	0	0	540	
3	0	0	0	0	697	
4	0	0	0	0	496	
5	0	0	0	0	449	
6	0	0	0	0	492	
7	0	0	0	0	587	
8	0	0	0	0	487	
9	0	0	0	0	366	
10	0	0	0	0	559	
11	0	0	0	0	362	
12	0	0	0	0	532	
13	0	0	0	0	489	
14	0	0	0	0	894	
15	0	0	0	0	607	
0	0	0	0	0	531	
1	0	0	0	0	453	
2	0	0	0	0	541	
3	0	0	0	0	447	
4	0	0	0	0	461	
5	0	0	0	0	438	
6	0	0	0	0	440	
7	0	0	0	0	490	
8	0	0	0	0	443	
9	0	0	0	0	520	
10	0	0	0	0	492	
11	0	0	0	0	591	
12	0	0	0	0	554	
13	0	0	0	0	457	
14	0	0	0	0	690	
15	0	0	0	0	314	
0	0	0	0	0	748	
1	0	0	0	0	575	
2	0	0	0	0	577	
3	0	0	0	0	474	
4	0	0	0	0	665	
5	0	0	0	0	415	
6	0	0	0	0	382	
7	0	0	0	0	450	
8	0	0	0	0	550	
9	0	0	0	0	500	
10	0	0	0	0	474	
11	0	0	0	0	443	
12	0	0	0	0	469	
13	0	0	0	0	490	
14	0	0	0	0	285	
15	0	0	0	0	416	
0	0	0	0	0	330	
1	0	0	0	0	720	
2	0	0	0	0	490	
3	0	0	0	0	412	
4	0	0	0	0	545	
5	0	0	0	0	399	
6	0	0	0	0	538	
7	0	0	0	0	587	
8	0	0	0	0	347	
9	0	0	0	0	387	
10	0	0	0	0	515	
11	0	0	0	0	605	
12	0	0	0	0	572	
13	0	0	0	0	405	
14	0	0	0	0	548	
15	0	0	0	0	636	
0	0	0	0	0	489	
1	0	0	0	0	335	
2	0	0	0	0	452	
3	0	0	0	0	796	
4	0	0	0	0	541	
5	0	0	0	0	236	
6	0	0	0	0	523	
7	0	0	0	0	486	
8	0	0	0	0	228	
9	0	0	0	0	558	
10	0	0	0	0	681	
11	0	0	0	0	347	
12	0	0	0	0	568	
13	0	0	0	0	508	
14	0	0	0	0	295	
15	0	0	0	0	540	
0	0	0	0	0	564	
1	0	0	0	0	615	
2	0	0	0	0	584	
3	0	0	0	0	488	
4	0	0	0	0	423	
5	0	0	0	0	481	
6	0	0	0	0	99	
7	0	0	0	0	477	
8	0	0	0	0	605	
9	0	0	0	0	344	
10	0	0	0	0	687	
11	0	0	0	0	321	
12	0	0	0	0	495	
13	0	0	0	0	474	
14	0	0	0	0	360	
15	0	0	0	0	616	
0	0	0	0	0	112	
1	0	0	0	0	487	
2	0	0	0	0	572	
3	0	0	0	0	414	
4	0	0	0	0	662	
5	0	0	0	0	484	
6	0	0	0	0	652	
7	0	0	0	0	575	
8	0	0	0	0	455	
9	0	0	0	0	710	
10	0	0	0	0	645	
11	0	0	0	0	608	
12	0	0	0	0	556	
13	0	0	0	0	415	
14	0	0	0	0	543	
15	0	0	0	0	545	
0	0	0	0	0	539	
1	0	0	0	0	557	
2	0	0	0	0	508	
3	0	0	0	0	369	
4	0	0	0	0	578	
5	0	0	0	0	376	
6	0	0	0	0	580	
7	0	0	0	0	479	
8	0	0	0	0	540	
9	0	0	0	0	379	
10	0	0	0	0	538	
11	0	0	0	0	697	
12	0	0	0	0	603	
13	0	0	0	0	485	
14	0	0	0	0	572	
15	0	0	0	0	465	
0	0	0	0	0	589	
1	0	0	0	0	537	
2	0	0	0	0	594	
3	0	0	0	0	512	
4	0	0	0	0	653	
5	0	0	0	0	495	
6	0	0	0	0	514	
7	0	0	0	0	489	
8	0	0	0	0	509	
9	0	0	0	0	502	
10	0	0	0	0	453	
11	0	0	0	0	462	
12	0	0	0	0	508	
13	0	0	0	0	463	
14	0	0	0	0	490	
15	0	0	0	0	323	
0	0	0	0	0	577	
1	0	0	0	0	511	
2	0	0	0	0	358	
3	0	0	0	0	526	
4	0	0	0	0	539	
5	0	0	0	0	516	
6	0	0	0	0	530	
7	0	0	0	0	634	
8	0	0	0	0	556	
9	0	0	0	0	476	
10	0	0	0	0	590	
11	0	0	0	0	526	
12	0	0	0	0	563	
13	0	0	0	0	535	
14	0	0	0	0	534	
15	0	0	0	0	514	
0	0	0	0	0	606	
1	0	0	0	0	388	
2	0	0	0	0	462	
3	0	0	0	0	323	
4	0	0	0	0	510	
5	0	0	0	0	544	
6	0	0	0	0	417	
7	0	0	0	0	531	
8	0	0	0	0	514	
9	0	0	0	0	513	
10	0	0	0	0	517	
11	0	0	0	0	579	
12	0	0	0	0	591	
13	0	0	0	0	414	
14	0	0	0	0	325	
15	0	0	0	0	566	
0	0	0	0	0	540	
1	0	0	0	0	470	
2	0	0	0	0	669	
3	0	0	0	0	600	
4	0	0	0	0	637	
5	0	0	0	0	572	
6	0	0	0	0	512	
7	0	0	0	0	566	
8	0	0	0	0	558	
9	0	0	0	0	580	
10	0	0	0	0	183	
11	0	0	0	0	512	
12	0	0	0	0	540	
13	0	0	0	0	485	
14	0	0	0	0	633	
15	0	0	0	0	503	
0	0	0	0	0	461	
1	0	0	0	0	513	
2	0	0	0	0	563	
3	0	0	0	0	505	
4	0	0	0	0	543	
5	0	0	0	0	359	
6	0	0	0	0	561	
7	0	0	0	0	516	
8	0	0	0	0	455	
9	0	0	0	0	493	
10	0	0	0	0	540	
11	0	0	0	0	471	
12	0	0	0	0	517	
13	0	0	0	0	466	
14	0	0	0	0	535	
15	0	0	0	0	483	
0	0	0	0	0	559	
1	0	0	0	0	495	
2	0	0	0	0	539	
3	0	0	0	0	468	
4	0	0	0	0	559	
5	0	0	0	0	498	
6	0	0	0	0	508	
7	0	0	0	0	493	
8	0	0	0	0	502	
9	0	0	0	0	485	
10	0	0	0	0	541	
11	0	0	0	0	494	
12	0	0	0	0	550	
13	0	0	0	0	499	
14	0	0	0	0	535	
15	0	0	0	0	473	
0	0	0	0	0	537	
1	0	0	0	0	487	
2	0	0	0	0	544	
3	0	0	0	0	475	
4	0	0	0	0	549	
5	0	0	0	0	469	
6	0	0	0	0	540	
7	0	0	0	0	470	
8	0	0	0	0	534	
9	0	0	0	0	481	
10	0	0	0	0	534	
11	0	0	0	0	492	
12	0	0	0	0	530	
13	0	0	0	0	468	
14	0	0	0	0	535	
15	0	0	0	0	487	
0	0	0	0	0	536	
1	0	0	0	0	441	
2	0	0	0	0	535	
3	0	0	0	0	491	
4	0	0	0	0	531	
5	0	0	0	0	475	
6	0	0	0	0	534	
7	0	0	0	0	485	
8	0	0	0	0	552	
9	0	0	0	0	491	
10	0	0	0	0	542	
11	0	0	0	0	480	
12	0	0	0	0	534	
13	0	0	0	0	474	
14	0	0	0	0	535	
15	0	0	0	0	473	
0	0	0	0	0	540	
1	0	0	0	0	458	
2	0	0	0	0	546	
3	0	0	0	0	482	
4	0	0	0	0	532	
5	0	0	0	0	474	
6	0	0	0	0	531	
7	0	0	0	0	480	
8	0	0	0	0	532	
9	0	0	0	0	483	
10	0	0	0	0	536	
11	0	0	0	0	474	
12	0	0	0	0	553	
13	0	0	0	0	451	
14	0	0	0	0	559	
15	0	0	0	0	478	
0	0	0	0	0	529	
1	0	0	0	0	471	
2	0	0	0	0	532	
3	0	0	0	0	481	
4	0	0	0	0	532	
5	0	0	0	0	493	
6	0	0	0	0	534	
7	0	0	0	0	486	
8	0	0	0	0	548	
9	0	0	0	0	454	
10	0	0	0	0	549	
11	0	0	0	0	479	
12	0	0	0	0	540	
13	0	0	0	0	477	
14	0	0	0	0	537	
15	0	0	0	0	476	
0	0	0	0	0	515	
1	0	0	0	0	482	
2	0	0	0	0	537	
3	0	0	0	0	461	
4	0	0	0	0	545	
5	0	0	0	0	465	
6	0	0	0	0	530	
7	0	0	0	0	489	
8	0	0	0	0	384	
9	0	0	0	0	472	
10	0	0	0	0	608	
11	0	0	0	0	597	
12	0	0	0	0	548	
13	0	0	0	0	476	
14	0	0	0	0	533	
15	0	0	0	0	448	
0	0	0	0	0	530	
1	0	0	0	0	472	
2	0	0	0	0	515	
3	0	0	0	0	487	
4	0	0	0	0	479	
5	0	0	0	0	496	
6	0	0	0	0	547	
7	0	0	0	0	479	
8	0	0	0	0	540	
9	0	0	0	0	470	
10	0	0	0	0	535	
11	0	0	0	0	479	
12	0	0	0	0	528	
13	0	0	0	0	479	
14	0	0	0	0	527	
15	0	0	0	0	502	
0	0	0	0	0	510	
1	0	0	0	0	479	
2	0	0	0	0	551	
3	0	0	0	0	485	
4	0	0	0	0	533	
5	0	0	0	0	481	
6	0	0	0	0	528	
7	0	0	0	0	475	
8	0	0	0	0	531	
9	0	0	0	0	460	
10	0	0	0	0	534	
11	0	0	0	0	495	
12	0	0	0	0	531	
13	0	0	0	0	474	
14	0	0	0	0	532	
15	0	0	0	0	481	
0	0	0	0	0	524	
1	0	0	0	0	507	
2	0	0	0	0	487	
3	0	0	0	0	513	
4	0	0	0	0	540	
5	0	0	0	0	493	
6	0	0	0	0	520	
7	0	0	0	0	480	
8	0	0	0	0	519	
9	0	0	0	0	484	
10	0	0	0	0	524	
11	0	0	0	0	493	
12	0	0	0	0	524	
13	0	0	0	0	494	
14	0	0	0	0	520	
15	0	0	0	0	489	
0	0	0	0	0	519	
1	0	0	0	0	482	
2	0	0	0	0	521	
3	0	0	0	0	489	
4	0	0	0	0	524	
5	0	0	0	0	489	
6	0	0	0	0	517	
7	0	0	0	0	486	
8	0	0	0	0	521	
9	0	0	0	0	484	
10	0	0	0	0	523	
11	0	0	0	0	494	
12	0	0	0	0	516	
13	0	0	0	0	497	
14	0	0	0	0	523	
15	0	0	0	0	487	
0	0	0	0	0	523	
1	0	0	0	0	487	
2	0	0	0	0	523	
3	0	0	0	0	503	
4	0	0	0	0	521	
5	0	0	0	0	494	
6	0	0	0	0	521	
7	0	0	0	0	486	
8	0	0	0	0	522	
9	0	0	0	0	491	
10	0	0	0	0	520	
11	0	0	0	0	490	
12	0	0	0	0	523	
13	0	0	0	0	488	
14	0	0	0	0	524	
15	0	0	0	0	487	
0	0	0	0	0	521	
1	0	0	0	0	487	
2	0	0	0	0	522	
3	0	0	0	0	486	
4	0	0	0	0	523	
5	0	0	0	0	484	
6	0	0	0	0	524	
7	0	0	0	0	491	
8	0	0	0	0	528	
9	0	0	0	0	483	
10	0	0	0	0	524	
11	0	0	0	0	491	
12	0	0	0	0	523	
13	0	0	0	0	490	
14	0	0	0	0	523	
15	0	0	0	0	488	
0	0	0	0	0	525	
1	0	0	0	0	486	
2	0	0	0	0	521	
3	0	0	0	0	487	
4	0	0	0	0	522	
5	0	0	0	0	487	
6	0	0	0	0	522	
7	0	0	0	0	489	
8	0	0	0	0	525	
9	0	0	0	0	486	
10	0	0	0	0	523	
11	0	0	0	0	492	
12	0	0	0	0	524	
13	0	0	0	0	489	
14	0	0	0	0	524	
15	0	0	0	0	490	
0	0	0	0	0	527	
1	0	0	0	0	490	
2	0	0	0	0	519	
3	0	0	0	0	490	
4	0	0	0	0	522	
5	0	0	0	0	493	
6	0	0	0	0	526	
7	0	0	0	0	487	
8	0	0	0	0	526	
9	0	0	0	0	488	
10	0	0	0	0	519	
11	0	0	0	0	489	
12	0	0	0	0	527	
13	0	0	0	0	489	
14	0	0	0	0	524	
15	0	0	0	0	488	
0	0	0	0	0	523	
1	0	0	0	0	485	
2	0	0	0	0	523	
3	0	0	0	0	489	
4	0	0	0	0	524	
5	0	0	0	0	489	
6	0	0	0	0	524	
7	0	0	0	0	489	
8	0	0	0	0	454	
9	0	0	0	0	463	
10	0	0	0	0	534	
11	0	0	0	0	499	
12	0	0	0	0	536	
13	0	0	0	0	497	
14	0	0	0	0	525	
15	0	0	0	0	494	
0	0	0	0	0	527	
1	0	0	0	0	490	
2	0	0	0	0	524	
3	0	0	0	0	489	
4	0	0	0	0	522	
5	0	0	0	0	489	
6	0	0	0	0	525	
7	0	0	0	0	490	
8	0	0	0	0	524	
9	0	0	0	0	491	
10	0	0	0	0	524	
11	0	0	0	0	492	
12	0	0	0	0	522	
13	0	0	0	0	489	
14	0	0	0	0	519	
15	0	0	0	0	490	
0	0	0	0	0	526	
1	0	0	0	0	487	
2	0	0	0	0	525	
3	0	0	0	0	487	
4	0	0	0	0	523	
5	0	0	0	0	487	
6	0	0	0	0	521	
7	0	0	0	0	487	
8	0	0	0	0	524	
9	0	0	0	0	488	
10	0	0	0	0	524	
11	0	0	0	0	486	
12	0	0	0	0	521	
13	0	0	0	0	487	
14	0	0	0	0	524	
15	0	0	0	0	487	
0	0	0	0	0	524	
1	0	0	0	0	489	
2	0	0	0	0	523	
3	0	0	0	0	485	
4	0	0	0	0	526	
5	0	0	0	0	487	
6	0	0	0	0	524	
7	0	0	0	0	487	
8	0	0	0	0	525	
9	0	0	0	0	489	
10	0	0	0	0	524	
11	0	0	0	0	486	
12	0	0	0	0	524	
13	0	0	0	0	487	
14	0	0	0	0	523	
15	0	0	0	0	491	
0	0	0	0	0	524	
1	0	0	0	0	487	
2	0	0	0	0	523	
3	0	0	0	0	487	
4	0	0	0	0	519	
5	0	0	0	0	489	
6	0	0	0	0	524	
7	0	0	0	0	489	
8	0	0	0	0	527	
9	0	0	0	0	492	
10	0	0	0	0	523	
11	0	0	0	0	488	
12	0	0	0	0	522	
13	0	0	0	0	488	
14	0	0	0	0	522	
15	0	0	0	0	488	
0	0	0	0	0	524	
1	0	0	0	0	489	
2	0	0	0	0	524	
3	0	0	0	0	486	
4	0	0	0	0	525	
5	0	0	0	0	487	
6	0	0	0	0	524	
7	0	0	0	0	486	
8	0	0	0	0	525	
9	0	0	0	0	487	
10	0	0	0	0	524	
11	0	0	0	0	488	
12	0	0	0	0	522	
13	0	0	0	0	490	
14	0	0	0	0	524	
15	0	0	0	0	488	
0	0	0	0	0	524	
1	0	0	0	0	487	
2	0	0	0	0	524	
3	0	0	0	0	488	
4	0	0	0	0	522	
5	0	0	0	0	487	
6	0	0	0	0	523	
7	0	0	0	0	487	
8	0	0	0	0	524	
9	0	0	0	0	490	
10	0	0	0	0	525	
11	0	0	0	0	488	
12	0	0	0	0	525	
13	0	0	0	0	488	
14	0	0	0	0	522	
15	0	0	0	0	486	
0	0	0	0	0	525	
1	0	0	0	0	490	
2	0	0	0	0	522	
3	0	0	0	0	489	
4	0	0	0	0	526	
5	0	0	0	0	485	
6	0	0	0	0	522	
7	0	0	0	0	487	
8	0	0	0	0	524	
9	0	0	0	0	488	
10	0	0	0	0	519	
11	0	0	0	0	488	
12	0	0	0	0	526	
13	0	0	0	0	487	
14	0	0	0	0	525	
15	0	0	0	0	485	
0	0	0	0	0	525	
1	0	0	0	0	489	
2	0	0	0	0	525	
3	0	0	0	0	487	
4	0	0	0	0	524	
5	0	0	0	0	486	
6	0	0	0	0	526	
7	0	0	0	0	487	
8	0	0	0	0	524	
9	0	0	0	0	486	
10	0	0	0	0	523	
11	0	0	0	0	488	
12	0	0	0	0	524	
13	0	0	0	0	487	
14	0	0	0	0	524	
15	0	0	0	0	486	
0	0	0	0	0	525	
1	0	0	0	0	486	
2	0	0	0	0	524	
3	0	0	0	0	484	
4	0	0	0	0	525	
5	0	0	0	0	485	
6	0	0	0	0	527	
7	0	0	0	0	487	
8	0	0	0	0	526	
9	0	0	0	0	483	
10	0	0	0	0	528	
11	0	0	0	0	485	
12	0	0	0	0	528	
13	0	0	0	0	486	
14	0	0	0	0	523	
15	0	0	0	0	484	
0	0	0	0	0	526	
1	0	0	0	0	483	
2	0	0	0	0	526	
3	0	0	0	0	487	
4	0	0	0	0	526	
5	0	0	0	0	486	
6	0	0	0	0	525	
7	0	0	0	0	490	
8	0	0	0	0	527	
9	0	0	0	0	485	
10	0	0	0	0	527	
11	0	0	0	0	483	
12	0	0	0	0	526	
13	0	0	0	0	485	
14	0	0	0	0	528	
15	0	0	0	0	484	
0	0	0	0	0	529	
1	0	0	0	0	486	
2	0	0	0	0	528	
3	0	0	0	0	487	
4	0	0	0	0	525	
5	0	0	0	0	484	
6	0	0	0	0	526	
7	0	0	0	0	482	
8	0	0	0	0	527	
9	0	0	0	0	486	
10	0	0	0	0	527	
11	0	0	0	0	485	
12	0	0	0	0	527	
13	0	0	0	0	486	
14	0	0	0	0	524	
15	0	0	0	0	486	
0	0	0	0	0	526	
1	0	0	0	0	484	
2	0	0	0	0	527	
3	0	0	0	0	485	
4	0	0	0	0	527	
5	0	0	0	0	487	
6	0	0	0	0	527	
7	0	0	0	0	484	
8	0	0	0	0	526	
9	0	0	0	0	487	
10	0	0	0	0	527	
11	0	0	0	0	486	
12	0	0	0	0	526	
13	0	0	0	0	484	
14	0	0	0	0	528	
15	0	0	0	0	484	
0	0	0	0	0	526	
1	0	0	0	0	484	
2	0	0	0	0	526	
3	0	0	0	0	483	
4	0	0	0	0	526	
5	0	0	0	0	486	
6	0	0	0	0	525	
7	0	0	0	0	486	
8	0	0	0	0	528	
9	0	0	0	0	487	
10	0	0	0	0	527	
11	0	0	0	0	486	
12	0	0	0	0	526	
13	0	0	0	0	485	
14	0	0	0	0	525	
15	0	0	0	0	485	
0	0	0	0	0	527	
1	0	0	0	0	486	
2	0	0	0	0	526	
3	0	0	0	0	484	
4	0	0	0	0	526	
5	0	0	0	0	486	
6	0	0	0	0	525	
7	0	0	0	0	484	
8	0	0	0	0	526	
9	0	0	0	0	487	
10	0	0	0	0	524	
11	0	0	0	0	477	
12	0	0	0	0	525	
13	0	0	0	0	487	
14	0	0	0	0	525	
15	0	0	0	0	487	
0	0	0	0	0	527	
1	0	0	0	0	489	
2	0	0	0	0	525	
3	0	0	0	0	485	
4	0	0	0	0	524	
5	0	0	0	0	487	
6	0	0	0	0	527	
7	0	0	0	0	487	
8	0	0	0	0	525	
9	0	0	0	0	485	
10	0	0	0	0	525	
11	0	0	0	0	485	
12	0	0	0	0	527	
13	0	0	0	0	487	
14	0	0	0	0	523	
15	0	0	0	0	483	
0	0	0	0	0	525	
1	0	0	0	0	486	
2	0	0	0	0	527	
3	0	0	0	0	488	
4	0	0	0	0	527	
5	0	0	0	0	485	
6	0	0	0	0	526	
7	0	0	0	0	485	
8	0	0	0	0	524	
9	0	0	0	0	487	
10	0	0	0	0	525	
11	0	0	0	0	487	
12	0	0	0	0	525	
13	0	0	0	0	486	
14	0	0	0	0	527	
15	0	0	0	0	485	
0	0	0	0	0	527	
1	0	0	0	0	483	
2	0	0	0	0	524	
3	0	0	0	0	487	
4	0	0	0	0	524	
5	0	0	0	0	484	
6	0	0	0	0	525	
7	0	0	0	0	487	
8	0	0	0	0	523	
9	0	0	0	0	488	
10	0	0	0	0	528	
11	0	0	0	0	487	
12	0	0	0	0	527	
13	0	0	0	0	483	
14	0	0	0	0	527	
15	0	0	0	0	486	
0	0	0	0	0	528	
1	0	0	0	0	484	
2	0	0	0	0	524	
3	0	0	0	0	485	
4	0	0	0	0	528	
5	0	0	0	0	484	
6	0	0	0	0	525	
7	0	0	0	0	489	
8	0	0	0	0	526	
9	0	0	0	0	487	
10	0	0	0	0	523	
11	0	0	0	0	485	
12	0	0	0	0	527	
13	0	0	0	0	488	
14	0	0	0	0	525	
15	0	0	0	0	486	
0	0	0	0	0	527	
1	0	0	0	0	484	
2	0	0	0	0	524	
3	0	0	0	0	483	
4	0	0	0	0	526	
5	0	0	0	0	487	
6	0	0	0	0	525	
7	0	0	0	0	484	
8	0	0	0	0	527	
9	0	0	0	0	486	
10	0	0	0	0	527	
11	0	0	0	0	486	
12	0	0	0	0	525	
13	0	0	0	0	484	
14	0	0	0	0	524	
15	0	0	0	0	486	
0	0	0	0	0	525	
1	0	0	0	0	485	
2	0	0	0	0	525	
3	0	0	0	0	487	
4	0	0	0	0	525	
5	0	0	0	0	484	
6	0	0	0	0	526	
7	0	0	0	0	484	
8	0	0	0	0	524	
9	0	0	0	0	488	
10	0	0	0	0	526	
11	0	0	0	0	485	
12	0	0	0	0	527	
13	0	0	0	0	484	
14	0	0	0	0	526	
15	0	0	0	0	486	
0	0	0	0	0	528	
1	0	0	0	0	487	
2	0	0	0	0	524	
3	0	0	0	0	487	
4	0	0	0	0	527	
5	0	0	0	0	486	
6	0	0	0	0	524	
7	0	0	0	0	488	
8	0	0	0	0	526	
9	0	0	0	0	486	
10	0	0	0	0	524	
11	0	0	0	0	483	
12	0	0	0	0	526	
13	0	0	0	0	484	
14	0	0	0	0	526	
15	0	0	0	0	485	
0	0	0	0	0	526	
1	0	0	0	0	484	
2	0	0	0	0	525	
3	0	0	0	0	487	
4	0	0	0	0	526	
5	0	0	0	0	483	
6	0	0	0	0	526	
7	0	0	0	0	484	
8	0	0	0	0	524	
9	0	0	0	0	488	
10	0	0	0	0	527	
11	0	0	0	0	486	
12	0	0	0	0	525	
13	0	0	0	0	485	
14	0	0	0	0	527	
15	0	0	0	0	486	
0	0	0	0	0	526	
1	0	0	0	0	485	
2	0	0	0	0	527	
3	0	0	0	0	484	
4	0	0	0	0	526	
5	0	0	0	0	486	
6	0	0	0	0	525	
7	0	0	0	0	487	
8	0	0	0	0	526	
9	0	0	0	0	487	
10	0	0	0	0	527	
11	0	0	0	0	483	
12	0	0	0	0	527	
13	0	0	0	0	486	
14	0	0	0	0	528	
15	0	0	0	0	486	
0	0	0	0	0	526	
1	0	0	0	0	487	
2	0	0	0	0	525	
3	0	0	0	0	486	
4	0	0	0	0	524	
5	0	0	0	0	487	
6	0	0	0	0	528	
7	0	0	0	0	484	
8	0	0	0	0	524	
9	0	0	0	0	484	
10	0	0	0	0	525	
11	0	0	0	0	483	
12	0	0	0	0	526	
13	0	0	0	0	485	
14	0	0	0	0	527	
15	0	0	0	0	486	
0	0	0	0	0	524	
1	0	0	0	0	485	
2	0	0	0	0	527	
3	0	0	0	0	487	
4	0	0	0	0	527	
5	0	0	0	0	484	
6	0	0	0	0	525	
7	0	0	0	0	485	
8	0	0	0	0	524	
9	0	0	0	0	485	
10	0	0	0	0	526	
11	0	0	0	0	486	
12	0	0	0	0	528	
13	0	0	0	0	487	
14	0	0	0	0	526	
15	0	0	0	0	484	
0	0	0	0	0	527	
1	0	0	0	0	486	
2	0	0	0	0	524	
3	0	0	0	0	485	
4	0	0	0	0	527	
5	0	0	0	0	486	
6	0	0	0	0	526	
7	0	0	0	0	485	
8	0	0	0	0	524	
9	0	0	0	0	482	
10	0	0	0	0	525	
11	0	0	0	0	490	
12	0	0	0	0	526	
13	0	0	0	0	487	
14	0	0	0	0	525	
15	0	0	0	0	483	
0	0	0	0	0	526	
1	0	0	0	0	483	
2	0	0	0	0	526	
3	0	0	0	0	486	
4	0	0	0	0	525	
5	0	0	0	0	483	
6	0	0	0	0	527	
7	0	0	0	0	485	
8	0	0	0	0	526	
9	0	0	0	0	485	
10	0	0	0	0	528	
11	0	0	0	0	486	
12	0	0	0	0	528	
13	0	0	0	0	483	
14	0	0	0	0	528	
15	0	0	0	0	487	
0	0	0	0	0	527	
1	0	0	0	0	486	
2	0	0	0	0	526	
3	0	0	0	0	484	
4	0	0	0	0	525	
5	0	0	0	0	485	
6	0	0	0	0	524	
7	0	0	0	0	484	
8	0	0	0	0	527	
9	0	0	0	0	483	
10	0	0	0	0	526	
11	0	0	0	0	486	
12	0	0	0	0	524	
13	0	0	0	0	487	
14	0	0	0	0	526	
15	0	0	0	0	483	
0	0	0	0	0	528	
1	0	0	0	0	484	
2	0	0	0	0	526	
3	0	0	0	0	485	
4	0	0	0	0	526	
5	0	0	0	0	485	
6	0	0	0	0	527	
7	0	0	0	0	484	
8	0	0	0	0	524	
9	0	0	0	0	487	
10	0	0	0	0	526	
11	0	0	0	0	485	
12	0	0	0	0	526	
13	0	0	0	0	483	
14	0	0	0	0	527	
15	0	0	0	0	486	
0	0	0	0	0	526	
1	0	0	0	0	484	
2	0	0	0	0	526	
3	0	0	0	0	483	
4	0	0	0	0	527	
5	0	0	0	0	485	
6	0	0	0	0	527	
7	0	0	0	0	486	
8	0	0	0	0	525	
9	0	0	0	0	484	
10	0	0	0	0	525	
11	0	0	0	0	484	
12	0	0	0	0	525	
13	0	0	0	0	484	
14	0	0	0	0	524	
15	0	0	0	0	486	
0	0	0	0	0	527	
1	0	0	0	0	484	
2	0	0	0	0	528	
3	0	0	0	0	483	
4	0	0	0	0	525	
5	0	0	0	0	483	
6	0	0	0	0	528	
7	0	0	0	0	484	
8	0	0	0	0	528	
9	0	0	0	0	486	
10	0	0	0	0	527	
11	0	0	0	0	484	
12	0	0	0	0	529	
13	0	0	0	0	483	
14	0	0	0	0	525	
15	0	0	0	0	487	
0	0	0	0	0	527	
1	0	0	0	0	487	
2	0	0	0	0	527	
3	0	0	0	0	486	
4	0	0	0	0	527	
5	0	0	0	0	485	
6	0	0	0	0	525	
7	0	0	0	0	484	
8	0	0	0	0	527	
9	0	0	0	0	487	
10	0	0	0	0	526	
11	0	0	0	0	480	
12	0	0	0	0	529	
13	0	0	0	0	482	
14	0	0	0	0	528	
15	0	0	0	0	482	
0	0	0	0	0	526	
1	0	0	0	0	484	
2	0	0	0	0	527	
3	0	0	0	0	486	
4	0	0	0	0	529	
5	0	0	0	0	483	
6	0	0	0	0	527	
7	0	0	0	0	482	
8	0	0	0	0	525	
9	0	0	0	0	483	
10	0	0	0	0	527	
11	0	0	0	0	484	
12	0	0	0	0	528	
13	0	0	0	0	485	
14	0	0	0	0	528	
15	0	0	0	0	481	
0	0	0	0	0	526	
1	0	0	0	0	485	
2	0	0	0	0	526	
3	0	0	0	0	485	
4	0	0	0	0	528	
5	0	0	0	0	483	
6	0	0	0	0	527	
7	0	0	0	0	484	
8	0	0	0	0	527	
9	0	0	0	0	484	
10	0	0	0	0	526	
11	0	0	0	0	484	
12	0	0	0	0	527	
13	0	0	0	0	483	
14	0	0	0	0	527	
15	0	0	0	0	484	
0	0	0	0	0	529	
1	0	0	0	0	485	
2	0	0	0	0	525	
3	0	0	0	0	484	
4	0	0	0	0	528	
5	0	0	0	0	485	
6	0	0	0	0	528	
7	0	0	0	0	482	
8	0	0	0	0	526	
9	0	0	0	0	485	
10	0	0	0	0	527	
11	0	0	0	0	483	
12	0	0	0	0	528	
13	0	0	0	0	483	
14	0	0	0	0	527	
15	0	0	0	0	486	
0	0	0	0	0	528	
1	0	0	0	0	481	
2	0	0	0	0	525	
3	0	0	0	0	484	
4	0	0	0	0	529	
5	0	0	0	0	484	
6	0	0	0	0	527	
7	0	0	0	0	483	
8	0	0	0	0	528	
9	0	0	0	0	483	
10	0	0	0	0	525	
11	0	0	0	0	481	
12	0	0	0	0	528	
13	0	0	0	0	487	
14	0	0	0	0	533	
15	0	0	0	0	489	
0	0	0	0	0	529	
1	0	0	0	0	482	
2	0	0	0	0	527	
3	0	0	0	0	484	
4	0	0	0	0	530	
5	0	0	0	0	483	
6	0	0	0	0	525	
7	0	0	0	0	484	
8	0	0	0	0	529	
9	0	0	0	0	484	
10	0	0	0	0	529	
11	0	0	0	0	482	
12	0	0	0	0	527	
13	0	0	0	0	484	
14	0	0	0	0	527	
15	0	0	0	0	484	
0	0	0	0	0	527	
1	0	0	0	0	486	
2	0	0	0	0	529	
3	0	0	0	0	485	
4	0	0	0	0	527	
5	0	0	0	0	485	
6	0	0	0	0	527	
7	0	0	0	0	484	
8	0	0	0	0	528	
9	0	0	0	0	484	
10	0	0	0	0	529	
11	0	0	0	0	483	
12	0	0	0	0	529	
13	0	0	0	0	486	
14	0	0	0	0	526	
15	0	0	0	0	484	
0	0	0	0	0	529	
1	0	0	0	0	483	
2	0	0	0	0	526	
3	0	0	0	0	485	
4	0	0	0	0	526	
5	0	0	0	0	485	
6	0	0	0	0	527	
7	0	0	0	0	483	
8	0	0	0	0	527	
9	0	0	0	0	484	
10	0	0	0	0	527	
11	0	0	0	0	483	
12	0	0	0	0	526	
13	0	0	0	0	485	
14	0	0	0	0	526	
15	0	0	0	0	483	
0	0	0	0	0	526	
1	0	0	0	0	487	
