# OpenSignals Text File Format. Version 1
# {"84:BA:20:5E:FF:7F": {"position": 0, "device": "bitalino_rev", "device name": "84:BA:20:5E:FF:7F", "device connection": "BTH84:BA:20:5E:FF:7F", "sampling rate": 100, "resolution": [4, 1, 1, 1, 1, 10], "firmware version": 1282, "comments": "", "keywords": "", "mode": 0, "sync interval": 2, "date": "2024-3-6", "time": "18:46:9.728", "channels": [1], "sensor": ["EMGBITREV"], "label": ["A1"], "column": ["nSeq", "I1", "I2", "O1", "O2", "A1"], "special": [{}], "digital IO": [0, 0, 1, 1]}}
# EndOfHeader
0	0	0	0	0	511	
1	0	0	0	0	508	
2	0	0	0	0	508	
3	0	0	0	0	505	
4	0	0	0	0	510	
5	0	0	0	0	503	
6	0	0	0	0	510	
7	0	0	0	0	504	
8	0	0	0	0	508	
9	0	0	0	0	505	
10	0	0	0	0	511	
11	0	0	0	0	505	
12	0	0	0	0	511	
13	0	0	0	0	499	
14	0	0	0	0	512	
15	0	0	0	0	505	
0	0	0	0	0	507	
1	0	0	0	0	505	
2	0	0	0	0	510	
3	0	0	0	0	507	
4	0	0	0	0	508	
5	0	0	0	0	507	
6	0	0	0	0	510	
7	0	0	0	0	508	
8	0	0	0	0	508	
9	0	0	0	0	507	
10	0	0	0	0	512	
11	0	0	0	0	508	
12	0	0	0	0	511	
13	0	0	0	0	507	
14	0	0	0	0	510	
15	0	0	0	0	505	
0	0	0	0	0	504	
1	0	0	0	0	508	
2	0	0	0	0	511	
3	0	0	0	0	506	
4	0	0	0	0	508	
5	0	0	0	0	505	
6	0	0	0	0	510	
7	0	0	0	0	508	
8	0	0	0	0	508	
9	0	0	0	0	504	
10	0	0	0	0	512	
11	0	0	0	0	513	
12	0	0	0	0	506	
13	0	0	0	0	512	
14	0	0	0	0	506	
15	0	0	0	0	504	
0	0	0	0	0	512	
1	0	0	0	0	507	
2	0	0	0	0	511	
3	0	0	0	0	507	
4	0	0	0	0	504	
5	0	0	0	0	506	
6	0	0	0	0	501	
7	0	0	0	0	504	
8	0	0	0	0	513	
9	0	0	0	0	504	
10	0	0	0	0	510	
11	0	0	0	0	502	
12	0	0	0	0	514	
13	0	0	0	0	507	
14	0	0	0	0	511	
15	0	0	0	0	502	
0	0	0	0	0	514	
1	0	0	0	0	508	
2	0	0	0	0	512	
3	0	0	0	0	501	
4	0	0	0	0	511	
5	0	0	0	0	505	
6	0	0	0	0	514	
7	0	0	0	0	506	
8	0	0	0	0	513	
9	0	0	0	0	504	
10	0	0	0	0	511	
11	0	0	0	0	505	
12	0	0	0	0	509	
13	0	0	0	0	505	
14	0	0	0	0	511	
15	0	0	0	0	508	
0	0	0	0	0	510	
1	0	0	0	0	504	
2	0	0	0	0	509	
3	0	0	0	0	499	
4	0	0	0	0	508	
5	0	0	0	0	500	
6	0	0	0	0	510	
7	0	0	0	0	508	
8	0	0	0	0	511	
9	0	0	0	0	490	
10	0	0	0	0	512	
11	0	0	0	0	505	
12	0	0	0	0	510	
13	0	0	0	0	503	
14	0	0	0	0	510	
15	0	0	0	0	507	
0	0	0	0	0	510	
1	0	0	0	0	503	
2	0	0	0	0	509	
3	0	0	0	0	504	
4	0	0	0	0	511	
5	0	0	0	0	505	
6	0	0	0	0	510	
7	0	0	0	0	508	
8	0	0	0	0	511	
9	0	0	0	0	507	
10	0	0	0	0	509	
11	0	0	0	0	507	
12	0	0	0	0	510	
13	0	0	0	0	496	
14	0	0	0	0	514	
15	0	0	0	0	505	
0	0	0	0	0	510	
1	0	0	0	0	507	
2	0	0	0	0	511	
3	0	0	0	0	504	
4	0	0	0	0	512	
5	0	0	0	0	508	
6	0	0	0	0	514	
7	0	0	0	0	506	
8	0	0	0	0	510	
9	0	0	0	0	503	
10	0	0	0	0	512	
11	0	0	0	0	505	
12	0	0	0	0	510	
13	0	0	0	0	507	
14	0	0	0	0	512	
15	0	0	0	0	501	
0	0	0	0	0	515	
1	0	0	0	0	507	
2	0	0	0	0	514	
3	0	0	0	0	504	
4	0	0	0	0	508	
5	0	0	0	0	505	
6	0	0	0	0	509	
7	0	0	0	0	505	
8	0	0	0	0	511	
9	0	0	0	0	509	
10	0	0	0	0	508	
11	0	0	0	0	507	
12	0	0	0	0	507	
13	0	0	0	0	504	
14	0	0	0	0	511	
15	0	0	0	0	504	
0	0	0	0	0	511	
1	0	0	0	0	504	
2	0	0	0	0	510	
3	0	0	0	0	505	
4	0	0	0	0	510	
5	0	0	0	0	506	
6	0	0	0	0	510	
7	0	0	0	0	506	
8	0	0	0	0	510	
9	0	0	0	0	503	
10	0	0	0	0	512	
11	0	0	0	0	504	
12	0	0	0	0	509	
13	0	0	0	0	503	
14	0	0	0	0	511	
15	0	0	0	0	504	
0	0	0	0	0	512	
1	0	0	0	0	507	
2	0	0	0	0	510	
3	0	0	0	0	497	
4	0	0	0	0	516	
5	0	0	0	0	504	
6	0	0	0	0	508	
7	0	0	0	0	509	
8	0	0	0	0	506	
9	0	0	0	0	504	
10	0	0	0	0	516	
11	0	0	0	0	493	
12	0	0	0	0	516	
13	0	0	0	0	503	
14	0	0	0	0	508	
15	0	0	0	0	508	
0	0	0	0	0	504	
1	0	0	0	0	510	
2	0	0	0	0	509	
3	0	0	0	0	510	
4	0	0	0	0	505	
5	0	0	0	0	504	
6	0	0	0	0	515	
7	0	0	0	0	503	
8	0	0	0	0	508	
9	0	0	0	0	502	
10	0	0	0	0	516	
11	0	0	0	0	504	
12	0	0	0	0	510	
13	0	0	0	0	503	
14	0	0	0	0	517	
15	0	0	0	0	503	
0	0	0	0	0	514	
1	0	0	0	0	507	
2	0	0	0	0	513	
3	0	0	0	0	500	
4	0	0	0	0	511	
5	0	0	0	0	498	
6	0	0	0	0	524	
7	0	0	0	0	497	
8	0	0	0	0	508	
9	0	0	0	0	499	
10	0	0	0	0	517	
11	0	0	0	0	510	
12	0	0	0	0	504	
13	0	0	0	0	505	
14	0	0	0	0	523	
15	0	0	0	0	501	
0	0	0	0	0	509	
1	0	0	0	0	502	
2	0	0	0	0	513	
3	0	0	0	0	500	
4	0	0	0	0	496	
5	0	0	0	0	511	
6	0	0	0	0	516	
7	0	0	0	0	511	
8	0	0	0	0	506	
9	0	0	0	0	510	
10	0	0	0	0	492	
11	0	0	0	0	524	
12	0	0	0	0	508	
13	0	0	0	0	509	
14	0	0	0	0	518	
15	0	0	0	0	499	
0	0	0	0	0	506	
1	0	0	0	0	510	
2	0	0	0	0	518	
3	0	0	0	0	500	
4	0	0	0	0	508	
5	0	0	0	0	502	
6	0	0	0	0	504	
7	0	0	0	0	521	
8	0	0	0	0	523	
9	0	0	0	0	496	
10	0	0	0	0	507	
11	0	0	0	0	500	
12	0	0	0	0	514	
13	0	0	0	0	495	
14	0	0	0	0	513	
15	0	0	0	0	496	
0	0	0	0	0	509	
1	0	0	0	0	526	
2	0	0	0	0	502	
3	0	0	0	0	506	
4	0	0	0	0	508	
5	0	0	0	0	500	
6	0	0	0	0	517	
7	0	0	0	0	508	
8	0	0	0	0	498	
9	0	0	0	0	492	
10	0	0	0	0	507	
11	0	0	0	0	510	
12	0	0	0	0	509	
13	0	0	0	0	527	
14	0	0	0	0	500	
15	0	0	0	0	496	
0	0	0	0	0	506	
1	0	0	0	0	504	
2	0	0	0	0	518	
3	0	0	0	0	509	
4	0	0	0	0	507	
5	0	0	0	0	508	
6	0	0	0	0	510	
7	0	0	0	0	511	
8	0	0	0	0	506	
9	0	0	0	0	526	
10	0	0	0	0	509	
11	0	0	0	0	490	
12	0	0	0	0	500	
13	0	0	0	0	505	
14	0	0	0	0	532	
15	0	0	0	0	496	
0	0	0	0	0	508	
1	0	0	0	0	513	
2	0	0	0	0	504	
3	0	0	0	0	514	
4	0	0	0	0	503	
5	0	0	0	0	492	
6	0	0	0	0	516	
7	0	0	0	0	498	
8	0	0	0	0	518	
9	0	0	0	0	487	
10	0	0	0	0	546	
11	0	0	0	0	443	
12	0	0	0	0	530	
13	0	0	0	0	476	
14	0	0	0	0	507	
15	0	0	0	0	539	
0	0	0	0	0	473	
1	0	0	0	0	486	
2	0	0	0	0	630	
3	0	0	0	0	554	
4	0	0	0	0	513	
5	0	0	0	0	439	
6	0	0	0	0	680	
7	0	0	0	0	266	
8	0	0	0	0	567	
9	0	0	0	0	572	
10	0	0	0	0	482	
11	0	0	0	0	490	
12	0	0	0	0	760	
13	0	0	0	0	638	
14	0	0	0	0	326	
15	0	0	0	0	625	
0	0	0	0	0	553	
1	0	0	0	0	455	
2	0	0	0	0	570	
3	0	0	0	0	539	
4	0	0	0	0	575	
5	0	0	0	0	383	
6	0	0	0	0	452	
7	0	0	0	0	513	
8	0	0	0	0	239	
9	0	0	0	0	492	
10	0	0	0	0	387	
11	0	0	0	0	663	
12	0	0	0	0	514	
13	0	0	0	0	219	
14	0	0	0	0	491	
15	0	0	0	0	410	
0	0	0	0	0	716	
1	0	0	0	0	462	
2	0	0	0	0	648	
3	0	0	0	0	452	
4	0	0	0	0	526	
5	0	0	0	0	587	
6	0	0	0	0	428	
7	0	0	0	0	654	
8	0	0	0	0	1022	
9	0	0	0	0	217	
10	0	0	0	0	505	
11	0	0	0	0	573	
12	0	0	0	0	490	
13	0	0	0	0	707	
14	0	0	0	0	630	
15	0	0	0	0	825	
0	0	0	0	0	595	
1	0	0	0	0	555	
2	0	0	0	0	617	
3	0	0	0	0	467	
4	0	0	0	0	447	
5	0	0	0	0	452	
6	0	0	0	0	564	
7	0	0	0	0	518	
8	0	0	0	0	452	
9	0	0	0	0	645	
10	0	0	0	0	387	
11	0	0	0	0	585	
12	0	0	0	0	760	
13	0	0	0	0	380	
14	0	0	0	0	773	
15	0	0	0	0	399	
0	0	0	0	0	472	
1	0	0	0	0	540	
2	0	0	0	0	431	
3	0	0	0	0	569	
4	0	0	0	0	443	
5	0	0	0	0	884	
6	0	0	0	0	218	
7	0	0	0	0	380	
8	0	0	0	0	296	
9	0	0	0	0	520	
10	0	0	0	0	1022	
11	0	0	0	0	536	
12	0	0	0	0	14	
13	0	0	0	0	209	
14	0	0	0	0	555	
15	0	0	0	0	592	
0	0	0	0	0	489	
1	0	0	0	0	400	
2	0	0	0	0	430	
3	0	0	0	0	506	
4	0	0	0	0	58	
5	0	0	0	0	359	
6	0	0	0	0	312	
7	0	0	0	0	694	
8	0	0	0	0	323	
9	0	0	0	0	769	
10	0	0	0	0	539	
11	0	0	0	0	312	
12	0	0	0	0	213	
13	0	0	0	0	528	
14	0	0	0	0	417	
15	0	0	0	0	478	
0	0	0	0	0	420	
1	0	0	0	0	483	
2	0	0	0	0	628	
3	0	0	0	0	755	
4	0	0	0	0	700	
5	0	0	0	0	730	
6	0	0	0	0	386	
7	0	0	0	0	732	
8	0	0	0	0	573	
9	0	0	0	0	502	
10	0	0	0	0	360	
11	0	0	0	0	442	
12	0	0	0	0	383	
13	0	0	0	0	727	
14	0	0	0	0	736	
15	0	0	0	0	598	
0	0	0	0	0	850	
1	0	0	0	0	176	
2	0	0	0	0	553	
3	0	0	0	0	0	
4	0	0	0	0	200	
5	0	0	0	0	713	
6	0	0	0	0	393	
7	0	0	0	0	535	
8	0	0	0	0	742	
9	0	0	0	0	59	
10	0	0	0	0	0	
11	0	0	0	0	371	
12	0	0	0	0	754	
13	0	0	0	0	325	
14	0	0	0	0	544	
15	0	0	0	0	453	
0	0	0	0	0	366	
1	0	0	0	0	663	
2	0	0	0	0	385	
3	0	0	0	0	460	
4	0	0	0	0	588	
5	0	0	0	0	614	
6	0	0	0	0	313	
7	0	0	0	0	198	
8	0	0	0	0	755	
9	0	0	0	0	985	
10	0	0	0	0	815	
11	0	0	0	0	310	
12	0	0	0	0	591	
13	0	0	0	0	1003	
14	0	0	0	0	369	
15	0	0	0	0	432	
0	0	0	0	0	776	
1	0	0	0	0	499	
2	0	0	0	0	617	
3	0	0	0	0	478	
4	0	0	0	0	353	
5	0	0	0	0	812	
6	0	0	0	0	415	
7	0	0	0	0	792	
8	0	0	0	0	704	
9	0	0	0	0	797	
10	0	0	0	0	378	
11	0	0	0	0	29	
12	0	0	0	0	448	
13	0	0	0	0	594	
14	0	0	0	0	309	
15	0	0	0	0	355	
0	0	0	0	0	559	
1	0	0	0	0	450	
2	0	0	0	0	767	
3	0	0	0	0	380	
4	0	0	0	0	443	
5	0	0	0	0	593	
6	0	0	0	0	947	
7	0	0	0	0	765	
8	0	0	0	0	433	
9	0	0	0	0	93	
10	0	0	0	0	308	
11	0	0	0	0	985	
12	0	0	0	0	362	
13	0	0	0	0	643	
14	0	0	0	0	547	
15	0	0	0	0	662	
0	0	0	0	0	520	
1	0	0	0	0	492	
2	0	0	0	0	420	
3	0	0	0	0	552	
4	0	0	0	0	912	
5	0	0	0	0	745	
6	0	0	0	0	546	
7	0	0	0	0	427	
8	0	0	0	0	956	
9	0	0	0	0	516	
10	0	0	0	0	535	
11	0	0	0	0	211	
12	0	0	0	0	196	
13	0	0	0	0	449	
14	0	0	0	0	814	
15	0	0	0	0	328	
0	0	0	0	0	813	
1	0	0	0	0	524	
2	0	0	0	0	311	
3	0	0	0	0	127	
4	0	0	0	0	731	
5	0	0	0	0	393	
6	0	0	0	0	553	
7	0	0	0	0	0	
8	0	0	0	0	390	
9	0	0	0	0	446	
10	0	0	0	0	397	
11	0	0	0	0	855	
12	0	0	0	0	272	
13	0	0	0	0	416	
14	0	0	0	0	684	
15	0	0	0	0	678	
0	0	0	0	0	123	
1	0	0	0	0	339	
2	0	0	0	0	957	
3	0	0	0	0	349	
4	0	0	0	0	606	
5	0	0	0	0	348	
6	0	0	0	0	383	
7	0	0	0	0	476	
8	0	0	0	0	604	
9	0	0	0	0	634	
10	0	0	0	0	919	
11	0	0	0	0	256	
12	0	0	0	0	803	
13	0	0	0	0	1018	
14	0	0	0	0	431	
15	0	0	0	0	574	
0	0	0	0	0	782	
1	0	0	0	0	305	
2	0	0	0	0	455	
3	0	0	0	0	254	
4	0	0	0	0	223	
5	0	0	0	0	522	
6	0	0	0	0	662	
7	0	0	0	0	223	
8	0	0	0	0	469	
9	0	0	0	0	546	
10	0	0	0	0	530	
11	0	0	0	0	424	
12	0	0	0	0	340	
13	0	0	0	0	536	
14	0	0	0	0	420	
15	0	0	0	0	337	
0	0	0	0	0	404	
1	0	0	0	0	416	
2	0	0	0	0	578	
3	0	0	0	0	274	
4	0	0	0	0	423	
5	0	0	0	0	668	
6	0	0	0	0	672	
7	0	0	0	0	183	
8	0	0	0	0	404	
9	0	0	0	0	424	
10	0	0	0	0	731	
11	0	0	0	0	472	
12	0	0	0	0	401	
13	0	0	0	0	405	
14	0	0	0	0	512	
15	0	0	0	0	471	
0	0	0	0	0	504	
1	0	0	0	0	530	
2	0	0	0	0	532	
3	0	0	0	0	384	
4	0	0	0	0	499	
5	0	0	0	0	504	
6	0	0	0	0	484	
7	0	0	0	0	599	
8	0	0	0	0	568	
9	0	0	0	0	138	
10	0	0	0	0	420	
11	0	0	0	0	480	
12	0	0	0	0	521	
13	0	0	0	0	504	
14	0	0	0	0	628	
15	0	0	0	0	541	
0	0	0	0	0	468	
1	0	0	0	0	492	
2	0	0	0	0	557	
3	0	0	0	0	533	
4	0	0	0	0	477	
5	0	0	0	0	512	
6	0	0	0	0	515	
7	0	0	0	0	509	
8	0	0	0	0	481	
9	0	0	0	0	534	
10	0	0	0	0	494	
11	0	0	0	0	510	
12	0	0	0	0	505	
13	0	0	0	0	521	
14	0	0	0	0	512	
15	0	0	0	0	457	
0	0	0	0	0	483	
1	0	0	0	0	463	
2	0	0	0	0	492	
3	0	0	0	0	502	
4	0	0	0	0	504	
5	0	0	0	0	506	
6	0	0	0	0	508	
7	0	0	0	0	515	
8	0	0	0	0	512	
9	0	0	0	0	444	
10	0	0	0	0	473	
11	0	0	0	0	476	
12	0	0	0	0	511	
13	0	0	0	0	507	
14	0	0	0	0	515	
15	0	0	0	0	483	
0	0	0	0	0	482	
1	0	0	0	0	512	
2	0	0	0	0	507	
3	0	0	0	0	494	
4	0	0	0	0	507	
5	0	0	0	0	541	
6	0	0	0	0	507	
7	0	0	0	0	510	
8	0	0	0	0	514	
9	0	0	0	0	505	
10	0	0	0	0	505	
11	0	0	0	0	491	
12	0	0	0	0	529	
13	0	0	0	0	508	
14	0	0	0	0	504	
15	0	0	0	0	510	
0	0	0	0	0	504	
1	0	0	0	0	525	
2	0	0	0	0	545	
3	0	0	0	0	505	
4	0	0	0	0	504	
5	0	0	0	0	504	
6	0	0	0	0	509	
7	0	0	0	0	513	
8	0	0	0	0	513	
9	0	0	0	0	507	
10	0	0	0	0	524	
11	0	0	0	0	490	
12	0	0	0	0	504	
13	0	0	0	0	511	
14	0	0	0	0	507	
15	0	0	0	0	502	
0	0	0	0	0	505	
1	0	0	0	0	511	
2	0	0	0	0	504	
3	0	0	0	0	510	
4	0	0	0	0	511	
5	0	0	0	0	500	
6	0	0	0	0	513	
7	0	0	0	0	505	
8	0	0	0	0	508	
9	0	0	0	0	502	
10	0	0	0	0	509	
11	0	0	0	0	504	
12	0	0	0	0	509	
13	0	0	0	0	505	
14	0	0	0	0	512	
15	0	0	0	0	506	
0	0	0	0	0	505	
1	0	0	0	0	508	
2	0	0	0	0	515	
3	0	0	0	0	509	
4	0	0	0	0	511	
5	0	0	0	0	510	
6	0	0	0	0	511	
7	0	0	0	0	501	
8	0	0	0	0	503	
9	0	0	0	0	503	
10	0	0	0	0	508	
11	0	0	0	0	505	
12	0	0	0	0	507	
13	0	0	0	0	511	
14	0	0	0	0	521	
15	0	0	0	0	504	
0	0	0	0	0	508	
1	0	0	0	0	505	
2	0	0	0	0	503	
3	0	0	0	0	512	
4	0	0	0	0	505	
5	0	0	0	0	520	
6	0	0	0	0	506	
7	0	0	0	0	497	
8	0	0	0	0	522	
9	0	0	0	0	501	
10	0	0	0	0	505	
11	0	0	0	0	508	
12	0	0	0	0	511	
13	0	0	0	0	505	
14	0	0	0	0	504	
15	0	0	0	0	508	
0	0	0	0	0	505	
1	0	0	0	0	503	
2	0	0	0	0	507	
3	0	0	0	0	504	
4	0	0	0	0	498	
5	0	0	0	0	505	
6	0	0	0	0	508	
7	0	0	0	0	510	
8	0	0	0	0	512	
9	0	0	0	0	503	
10	0	0	0	0	512	
11	0	0	0	0	504	
12	0	0	0	0	513	
13	0	0	0	0	501	
14	0	0	0	0	501	
15	0	0	0	0	519	
0	0	0	0	0	505	
1	0	0	0	0	503	
2	0	0	0	0	512	
3	0	0	0	0	504	
4	0	0	0	0	508	
5	0	0	0	0	508	
6	0	0	0	0	512	
7	0	0	0	0	504	
8	0	0	0	0	513	
9	0	0	0	0	503	
10	0	0	0	0	507	
11	0	0	0	0	520	
12	0	0	0	0	501	
13	0	0	0	0	504	
14	0	0	0	0	507	
15	0	0	0	0	506	
0	0	0	0	0	508	
1	0	0	0	0	502	
2	0	0	0	0	521	
3	0	0	0	0	503	
4	0	0	0	0	511	
5	0	0	0	0	510	
6	0	0	0	0	509	
7	0	0	0	0	504	
8	0	0	0	0	501	
9	0	0	0	0	505	
10	0	0	0	0	513	
11	0	0	0	0	508	
12	0	0	0	0	504	
13	0	0	0	0	505	
14	0	0	0	0	508	
15	0	0	0	0	516	
0	0	0	0	0	511	
1	0	0	0	0	504	
2	0	0	0	0	513	
3	0	0	0	0	504	
4	0	0	0	0	496	
5	0	0	0	0	518	
6	0	0	0	0	504	
7	0	0	0	0	508	
8	0	0	0	0	507	
9	0	0	0	0	505	
10	0	0	0	0	510	
11	0	0	0	0	505	
12	0	0	0	0	505	
13	0	0	0	0	510	
14	0	0	0	0	505	
15	0	0	0	0	510	
0	0	0	0	0	508	
1	0	0	0	0	507	
2	0	0	0	0	517	
3	0	0	0	0	505	
4	0	0	0	0	509	
5	0	0	0	0	508	
6	0	0	0	0	512	
7	0	0	0	0	492	
8	0	0	0	0	520	
9	0	0	0	0	508	
10	0	0	0	0	504	
11	0	0	0	0	508	
12	0	0	0	0	508	
13	0	0	0	0	507	
14	0	0	0	0	511	
15	0	0	0	0	495	
0	0	0	0	0	526	
1	0	0	0	0	500	
2	0	0	0	0	513	
3	0	0	0	0	504	
4	0	0	0	0	508	
5	0	0	0	0	501	
6	0	0	0	0	515	
7	0	0	0	0	505	
8	0	0	0	0	501	
9	0	0	0	0	521	
10	0	0	0	0	500	
11	0	0	0	0	511	
12	0	0	0	0	505	
13	0	0	0	0	513	
14	0	0	0	0	514	
15	0	0	0	0	510	
0	0	0	0	0	509	
1	0	0	0	0	495	
2	0	0	0	0	514	
3	0	0	0	0	502	
4	0	0	0	0	506	
5	0	0	0	0	497	
6	0	0	0	0	507	
7	0	0	0	0	514	
8	0	0	0	0	502	
9	0	0	0	0	509	
10	0	0	0	0	512	
11	0	0	0	0	524	
12	0	0	0	0	511	
13	0	0	0	0	494	
14	0	0	0	0	508	
15	0	0	0	0	508	
0	0	0	0	0	507	
1	0	0	0	0	506	
2	0	0	0	0	508	
3	0	0	0	0	514	
4	0	0	0	0	506	
5	0	0	0	0	499	
6	0	0	0	0	510	
7	0	0	0	0	506	
8	0	0	0	0	502	
9	0	0	0	0	508	
10	0	0	0	0	510	
11	0	0	0	0	510	
12	0	0	0	0	506	
13	0	0	0	0	511	
14	0	0	0	0	506	
15	0	0	0	0	514	
0	0	0	0	0	509	
1	0	0	0	0	502	
2	0	0	0	0	507	
3	0	0	0	0	504	
4	0	0	0	0	508	
5	0	0	0	0	508	
6	0	0	0	0	510	
7	0	0	0	0	510	
8	0	0	0	0	509	
9	0	0	0	0	506	
10	0	0	0	0	511	
11	0	0	0	0	510	
12	0	0	0	0	506	
13	0	0	0	0	506	
14	0	0	0	0	507	
15	0	0	0	0	508	
0	0	0	0	0	509	
1	0	0	0	0	506	
2	0	0	0	0	516	
3	0	0	0	0	502	
4	0	0	0	0	515	
5	0	0	0	0	504	
6	0	0	0	0	500	
7	0	0	0	0	510	
8	0	0	0	0	509	
9	0	0	0	0	508	
10	0	0	0	0	502	
11	0	0	0	0	514	
12	0	0	0	0	507	
13	0	0	0	0	490	
14	0	0	0	0	520	
15	0	0	0	0	504	
0	0	0	0	0	504	
1	0	0	0	0	497	
2	0	0	0	0	510	
3	0	0	0	0	501	
4	0	0	0	0	504	
5	0	0	0	0	521	
6	0	0	0	0	504	
7	0	0	0	0	504	
8	0	0	0	0	508	
9	0	0	0	0	520	
10	0	0	0	0	521	
11	0	0	0	0	491	
12	0	0	0	0	512	
13	0	0	0	0	505	
14	0	0	0	0	507	
15	0	0	0	0	510	
0	0	0	0	0	510	
1	0	0	0	0	513	
2	0	0	0	0	482	
3	0	0	0	0	530	
4	0	0	0	0	497	
5	0	0	0	0	502	
6	0	0	0	0	517	
7	0	0	0	0	503	
8	0	0	0	0	503	
9	0	0	0	0	516	
10	0	0	0	0	487	
11	0	0	0	0	511	
12	0	0	0	0	509	
13	0	0	0	0	505	
14	0	0	0	0	507	
15	0	0	0	0	509	
0	0	0	0	0	502	
1	0	0	0	0	508	
2	0	0	0	0	517	
3	0	0	0	0	508	
4	0	0	0	0	502	
5	0	0	0	0	514	
6	0	0	0	0	509	
7	0	0	0	0	505	
8	0	0	0	0	488	
9	0	0	0	0	509	
10	0	0	0	0	507	
11	0	0	0	0	509	
12	0	0	0	0	507	
13	0	0	0	0	504	
14	0	0	0	0	506	
15	0	0	0	0	514	
0	0	0	0	0	499	
1	0	0	0	0	524	
2	0	0	0	0	502	
3	0	0	0	0	491	
4	0	0	0	0	519	
5	0	0	0	0	495	
6	0	0	0	0	521	
7	0	0	0	0	506	
8	0	0	0	0	505	
9	0	0	0	0	512	
10	0	0	0	0	498	
11	0	0	0	0	530	
12	0	0	0	0	501	
13	0	0	0	0	511	
14	0	0	0	0	502	
15	0	0	0	0	510	
0	0	0	0	0	504	
1	0	0	0	0	519	
2	0	0	0	0	521	
3	0	0	0	0	518	
4	0	0	0	0	524	
5	0	0	0	0	496	
6	0	0	0	0	500	
7	0	0	0	0	510	
8	0	0	0	0	511	
9	0	0	0	0	504	
10	0	0	0	0	497	
11	0	0	0	0	544	
12	0	0	0	0	507	
13	0	0	0	0	504	
14	0	0	0	0	495	
15	0	0	0	0	514	
0	0	0	0	0	496	
1	0	0	0	0	515	
2	0	0	0	0	508	
3	0	0	0	0	505	
4	0	0	0	0	496	
5	0	0	0	0	523	
6	0	0	0	0	485	
7	0	0	0	0	543	
8	0	0	0	0	493	
9	0	0	0	0	504	
10	0	0	0	0	507	
11	0	0	0	0	511	
12	0	0	0	0	501	
13	0	0	0	0	502	
14	0	0	0	0	504	
15	0	0	0	0	505	
0	0	0	0	0	492	
1	0	0	0	0	501	
2	0	0	0	0	522	
3	0	0	0	0	502	
4	0	0	0	0	513	
5	0	0	0	0	502	
6	0	0	0	0	503	
7	0	0	0	0	537	
8	0	0	0	0	505	
9	0	0	0	0	516	
10	0	0	0	0	499	
11	0	0	0	0	508	
12	0	0	0	0	507	
13	0	0	0	0	508	
14	0	0	0	0	522	
15	0	0	0	0	491	
0	0	0	0	0	511	
1	0	0	0	0	517	
2	0	0	0	0	499	
3	0	0	0	0	516	
4	0	0	0	0	499	
5	0	0	0	0	507	
6	0	0	0	0	499	
7	0	0	0	0	514	
8	0	0	0	0	499	
9	0	0	0	0	519	
10	0	0	0	0	497	
11	0	0	0	0	529	
12	0	0	0	0	493	
13	0	0	0	0	505	
14	0	0	0	0	513	
15	0	0	0	0	505	
0	0	0	0	0	501	
1	0	0	0	0	505	
2	0	0	0	0	514	
3	0	0	0	0	504	
4	0	0	0	0	502	
5	0	0	0	0	513	
6	0	0	0	0	517	
7	0	0	0	0	489	
8	0	0	0	0	529	
9	0	0	0	0	513	
10	0	0	0	0	502	
11	0	0	0	0	510	
12	0	0	0	0	505	
13	0	0	0	0	509	
14	0	0	0	0	504	
15	0	0	0	0	526	
0	0	0	0	0	490	
1	0	0	0	0	499	
2	0	0	0	0	512	
3	0	0	0	0	516	
4	0	0	0	0	520	
5	0	0	0	0	504	
6	0	0	0	0	511	
7	0	0	0	0	506	
8	0	0	0	0	504	
9	0	0	0	0	516	
10	0	0	0	0	510	
11	0	0	0	0	521	
12	0	0	0	0	498	
13	0	0	0	0	546	
14	0	0	0	0	497	
15	0	0	0	0	510	
0	0	0	0	0	511	
1	0	0	0	0	510	
2	0	0	0	0	511	
3	0	0	0	0	507	
4	0	0	0	0	499	
5	0	0	0	0	508	
6	0	0	0	0	501	
7	0	0	0	0	512	
8	0	0	0	0	546	
9	0	0	0	0	503	
10	0	0	0	0	503	
11	0	0	0	0	510	
12	0	0	0	0	502	
13	0	0	0	0	502	
14	0	0	0	0	517	
15	0	0	0	0	516	
0	0	0	0	0	501	
1	0	0	0	0	520	
2	0	0	0	0	491	
3	0	0	0	0	503	
4	0	0	0	0	500	
5	0	0	0	0	506	
6	0	0	0	0	503	
7	0	0	0	0	507	
8	0	0	0	0	522	
9	0	0	0	0	513	
10	0	0	0	0	497	
11	0	0	0	0	508	
12	0	0	0	0	505	
13	0	0	0	0	486	
14	0	0	0	0	493	
15	0	0	0	0	502	
0	0	0	0	0	535	
1	0	0	0	0	496	
2	0	0	0	0	513	
3	0	0	0	0	511	
4	0	0	0	0	528	
5	0	0	0	0	506	
6	0	0	0	0	507	
7	0	0	0	0	528	
8	0	0	0	0	515	
9	0	0	0	0	498	
10	0	0	0	0	498	
11	0	0	0	0	525	
12	0	0	0	0	503	
13	0	0	0	0	501	
14	0	0	0	0	519	
15	0	0	0	0	510	
0	0	0	0	0	496	
1	0	0	0	0	510	
2	0	0	0	0	503	
3	0	0	0	0	498	
4	0	0	0	0	500	
5	0	0	0	0	494	
6	0	0	0	0	499	
7	0	0	0	0	531	
8	0	0	0	0	489	
9	0	0	0	0	513	
10	0	0	0	0	508	
11	0	0	0	0	521	
12	0	0	0	0	495	
13	0	0	0	0	543	
14	0	0	0	0	488	
15	0	0	0	0	493	
0	0	0	0	0	537	
1	0	0	0	0	483	
2	0	0	0	0	508	
3	0	0	0	0	503	
4	0	0	0	0	494	
5	0	0	0	0	527	
6	0	0	0	0	499	
7	0	0	0	0	505	
8	0	0	0	0	474	
9	0	0	0	0	511	
10	0	0	0	0	485	
11	0	0	0	0	517	
12	0	0	0	0	505	
13	0	0	0	0	497	
14	0	0	0	0	507	
15	0	0	0	0	528	
0	0	0	0	0	508	
1	0	0	0	0	494	
2	0	0	0	0	493	
3	0	0	0	0	483	
4	0	0	0	0	513	
5	0	0	0	0	494	
6	0	0	0	0	487	
7	0	0	0	0	541	
8	0	0	0	0	489	
9	0	0	0	0	514	
10	0	0	0	0	502	
11	0	0	0	0	496	
12	0	0	0	0	558	
13	0	0	0	0	509	
14	0	0	0	0	498	
15	0	0	0	0	496	
0	0	0	0	0	538	
1	0	0	0	0	504	
2	0	0	0	0	503	
3	0	0	0	0	517	
4	0	0	0	0	512	
5	0	0	0	0	529	
6	0	0	0	0	496	
7	0	0	0	0	541	
8	0	0	0	0	523	
9	0	0	0	0	520	
10	0	0	0	0	480	
11	0	0	0	0	609	
12	0	0	0	0	517	
13	0	0	0	0	497	
14	0	0	0	0	503	
15	0	0	0	0	451	
0	0	0	0	0	471	
1	0	0	0	0	574	
2	0	0	0	0	439	
3	0	0	0	0	702	
4	0	0	0	0	670	
5	0	0	0	0	301	
6	0	0	0	0	584	
7	0	0	0	0	525	
8	0	0	0	0	354	
9	0	0	0	0	444	
10	0	0	0	0	382	
11	0	0	0	0	311	
12	0	0	0	0	459	
13	0	0	0	0	398	
14	0	0	0	0	540	
15	0	0	0	0	458	
0	0	0	0	0	510	
1	0	0	0	0	911	
2	0	0	0	0	547	
3	0	0	0	0	467	
4	0	0	0	0	597	
5	0	0	0	0	527	
6	0	0	0	0	291	
7	0	0	0	0	299	
8	0	0	0	0	360	
9	0	0	0	0	405	
10	0	0	0	0	520	
11	0	0	0	0	553	
12	0	0	0	0	476	
13	0	0	0	0	521	
14	0	0	0	0	372	
15	0	0	0	0	379	
0	0	0	0	0	484	
1	0	0	0	0	498	
2	0	0	0	0	551	
3	0	0	0	0	482	
4	0	0	0	0	509	
5	0	0	0	0	425	
6	0	0	0	0	362	
7	0	0	0	0	481	
8	0	0	0	0	542	
9	0	0	0	0	560	
10	0	0	0	0	444	
11	0	0	0	0	414	
12	0	0	0	0	513	
13	0	0	0	0	448	
14	0	0	0	0	473	
15	0	0	0	0	509	
0	0	0	0	0	522	
1	0	0	0	0	489	
2	0	0	0	0	504	
3	0	0	0	0	541	
4	0	0	0	0	598	
5	0	0	0	0	412	
6	0	0	0	0	481	
7	0	0	0	0	510	
8	0	0	0	0	468	
9	0	0	0	0	486	
10	0	0	0	0	431	
11	0	0	0	0	560	
12	0	0	0	0	555	
13	0	0	0	0	592	
14	0	0	0	0	450	
15	0	0	0	0	516	
0	0	0	0	0	541	
1	0	0	0	0	435	
2	0	0	0	0	487	
3	0	0	0	0	543	
4	0	0	0	0	400	
5	0	0	0	0	580	
6	0	0	0	0	481	
7	0	0	0	0	467	
8	0	0	0	0	571	
9	0	0	0	0	543	
10	0	0	0	0	518	
11	0	0	0	0	508	
12	0	0	0	0	503	
13	0	0	0	0	540	
14	0	0	0	0	459	
15	0	0	0	0	529	
0	0	0	0	0	485	
1	0	0	0	0	515	
2	0	0	0	0	490	
3	0	0	0	0	518	
4	0	0	0	0	502	
5	0	0	0	0	533	
6	0	0	0	0	455	
7	0	0	0	0	481	
8	0	0	0	0	463	
9	0	0	0	0	497	
10	0	0	0	0	508	
11	0	0	0	0	500	
12	0	0	0	0	519	
13	0	0	0	0	544	
14	0	0	0	0	487	
15	0	0	0	0	492	
0	0	0	0	0	564	
1	0	0	0	0	492	
2	0	0	0	0	520	
3	0	0	0	0	553	
4	0	0	0	0	595	
5	0	0	0	0	520	
6	0	0	0	0	522	
7	0	0	0	0	516	
8	0	0	0	0	487	
9	0	0	0	0	633	
10	0	0	0	0	513	
11	0	0	0	0	515	
12	0	0	0	0	506	
13	0	0	0	0	520	
14	0	0	0	0	503	
15	0	0	0	0	513	
0	0	0	0	0	699	
1	0	0	0	0	456	
2	0	0	0	0	521	
3	0	0	0	0	519	
4	0	0	0	0	608	
5	0	0	0	0	527	
6	0	0	0	0	477	
7	0	0	0	0	515	
8	0	0	0	0	524	
9	0	0	0	0	496	
10	0	0	0	0	486	
11	0	0	0	0	441	
12	0	0	0	0	493	
13	0	0	0	0	493	
14	0	0	0	0	473	
15	0	0	0	0	602	
0	0	0	0	0	523	
1	0	0	0	0	446	
2	0	0	0	0	526	
3	0	0	0	0	521	
4	0	0	0	0	520	
5	0	0	0	0	521	
6	0	0	0	0	509	
7	0	0	0	0	484	
8	0	0	0	0	570	
9	0	0	0	0	492	
10	0	0	0	0	473	
11	0	0	0	0	518	
12	0	0	0	0	482	
13	0	0	0	0	497	
14	0	0	0	0	515	
15	0	0	0	0	507	
0	0	0	0	0	510	
1	0	0	0	0	487	
2	0	0	0	0	410	
3	0	0	0	0	543	
4	0	0	0	0	467	
5	0	0	0	0	497	
6	0	0	0	0	535	
7	0	0	0	0	470	
8	0	0	0	0	509	
9	0	0	0	0	579	
10	0	0	0	0	445	
11	0	0	0	0	543	
12	0	0	0	0	516	
13	0	0	0	0	540	
14	0	0	0	0	554	
15	0	0	0	0	448	
0	0	0	0	0	489	
1	0	0	0	0	477	
2	0	0	0	0	504	
3	0	0	0	0	545	
4	0	0	0	0	490	
5	0	0	0	0	518	
6	0	0	0	0	522	
7	0	0	0	0	428	
8	0	0	0	0	493	
9	0	0	0	0	478	
10	0	0	0	0	508	
11	0	0	0	0	502	
12	0	0	0	0	514	
13	0	0	0	0	567	
14	0	0	0	0	443	
15	0	0	0	0	473	
0	0	0	0	0	558	
1	0	0	0	0	501	
2	0	0	0	0	495	
3	0	0	0	0	534	
4	0	0	0	0	565	
5	0	0	0	0	562	
6	0	0	0	0	418	
7	0	0	0	0	574	
8	0	0	0	0	500	
9	0	0	0	0	527	
10	0	0	0	0	482	
11	0	0	0	0	527	
12	0	0	0	0	409	
13	0	0	0	0	572	
14	0	0	0	0	472	
15	0	0	0	0	533	
0	0	0	0	0	469	
1	0	0	0	0	559	
2	0	0	0	0	463	
3	0	0	0	0	496	
4	0	0	0	0	504	
5	0	0	0	0	448	
6	0	0	0	0	507	
7	0	0	0	0	496	
8	0	0	0	0	477	
9	0	0	0	0	528	
10	0	0	0	0	495	
11	0	0	0	0	526	
12	0	0	0	0	501	
13	0	0	0	0	476	
14	0	0	0	0	499	
15	0	0	0	0	479	
0	0	0	0	0	480	
1	0	0	0	0	543	
2	0	0	0	0	480	
3	0	0	0	0	521	
4	0	0	0	0	476	
5	0	0	0	0	498	
6	0	0	0	0	507	
7	0	0	0	0	536	
8	0	0	0	0	547	
9	0	0	0	0	485	
10	0	0	0	0	522	
11	0	0	0	0	401	
12	0	0	0	0	547	
13	0	0	0	0	501	
14	0	0	0	0	500	
15	0	0	0	0	503	
0	0	0	0	0	414	
1	0	0	0	0	531	
2	0	0	0	0	467	
3	0	0	0	0	544	
4	0	0	0	0	477	
5	0	0	0	0	473	
6	0	0	0	0	507	
7	0	0	0	0	596	
8	0	0	0	0	471	
9	0	0	0	0	490	
10	0	0	0	0	490	
11	0	0	0	0	500	
12	0	0	0	0	531	
13	0	0	0	0	495	
14	0	0	0	0	491	
15	0	0	0	0	446	
0	0	0	0	0	539	
1	0	0	0	0	498	
2	0	0	0	0	500	
3	0	0	0	0	527	
4	0	0	0	0	455	
5	0	0	0	0	577	
6	0	0	0	0	478	
7	0	0	0	0	432	
8	0	0	0	0	538	
9	0	0	0	0	455	
10	0	0	0	0	492	
11	0	0	0	0	430	
12	0	0	0	0	527	
13	0	0	0	0	441	
14	0	0	0	0	611	
15	0	0	0	0	402	
0	0	0	0	0	556	
1	0	0	0	0	524	
2	0	0	0	0	461	
3	0	0	0	0	539	
4	0	0	0	0	508	
5	0	0	0	0	436	
6	0	0	0	0	601	
7	0	0	0	0	510	
8	0	0	0	0	472	
9	0	0	0	0	514	
10	0	0	0	0	626	
11	0	0	0	0	477	
12	0	0	0	0	537	
13	0	0	0	0	449	
14	0	0	0	0	491	
15	0	0	0	0	520	
0	0	0	0	0	476	
1	0	0	0	0	496	
2	0	0	0	0	519	
3	0	0	0	0	560	
4	0	0	0	0	496	
5	0	0	0	0	495	
6	0	0	0	0	504	
7	0	0	0	0	490	
8	0	0	0	0	531	
9	0	0	0	0	656	
10	0	0	0	0	539	
11	0	0	0	0	462	
12	0	0	0	0	527	
13	0	0	0	0	553	
14	0	0	0	0	504	
15	0	0	0	0	581	
0	0	0	0	0	457	
1	0	0	0	0	605	
2	0	0	0	0	496	
3	0	0	0	0	487	
4	0	0	0	0	472	
5	0	0	0	0	506	
6	0	0	0	0	472	
7	0	0	0	0	481	
8	0	0	0	0	503	
9	0	0	0	0	446	
10	0	0	0	0	493	
11	0	0	0	0	493	
12	0	0	0	0	534	
13	0	0	0	0	538	
14	0	0	0	0	487	
15	0	0	0	0	593	
0	0	0	0	0	432	
1	0	0	0	0	546	
2	0	0	0	0	491	
3	0	0	0	0	513	
4	0	0	0	0	501	
5	0	0	0	0	505	
6	0	0	0	0	672	
7	0	0	0	0	427	
8	0	0	0	0	556	
9	0	0	0	0	524	
10	0	0	0	0	469	
11	0	0	0	0	494	
12	0	0	0	0	588	
13	0	0	0	0	581	
14	0	0	0	0	502	
15	0	0	0	0	532	
0	0	0	0	0	381	
1	0	0	0	0	615	
2	0	0	0	0	534	
3	0	0	0	0	526	
4	0	0	0	0	453	
5	0	0	0	0	606	
6	0	0	0	0	473	
7	0	0	0	0	684	
8	0	0	0	0	467	
9	0	0	0	0	507	
10	0	0	0	0	509	
11	0	0	0	0	475	
12	0	0	0	0	469	
13	0	0	0	0	661	
14	0	0	0	0	469	
15	0	0	0	0	591	
0	0	0	0	0	496	
1	0	0	0	0	572	
2	0	0	0	0	532	
3	0	0	0	0	556	
4	0	0	0	0	481	
5	0	0	0	0	470	
6	0	0	0	0	652	
7	0	0	0	0	500	
8	0	0	0	0	531	
9	0	0	0	0	442	
10	0	0	0	0	558	
11	0	0	0	0	542	
12	0	0	0	0	579	
13	0	0	0	0	408	
14	0	0	0	0	408	
15	0	0	0	0	477	
0	0	0	0	0	501	
1	0	0	0	0	364	
2	0	0	0	0	635	
3	0	0	0	0	525	
4	0	0	0	0	541	
5	0	0	0	0	727	
6	0	0	0	0	414	
7	0	0	0	0	532	
8	0	0	0	0	483	
9	0	0	0	0	537	
10	0	0	0	0	441	
11	0	0	0	0	694	
12	0	0	0	0	586	
13	0	0	0	0	473	
14	0	0	0	0	466	
15	0	0	0	0	572	
0	0	0	0	0	431	
1	0	0	0	0	547	
2	0	0	0	0	618	
3	0	0	0	0	452	
4	0	0	0	0	594	
5	0	0	0	0	433	
6	0	0	0	0	520	
7	0	0	0	0	540	
8	0	0	0	0	558	
9	0	0	0	0	481	
10	0	0	0	0	400	
11	0	0	0	0	616	
12	0	0	0	0	462	
13	0	0	0	0	544	
14	0	0	0	0	555	
15	0	0	0	0	526	
0	0	0	0	0	389	
1	0	0	0	0	696	
2	0	0	0	0	266	
3	0	0	0	0	592	
4	0	0	0	0	583	
5	0	0	0	0	412	
6	0	0	0	0	468	
7	0	0	0	0	512	
8	0	0	0	0	523	
9	0	0	0	0	496	
10	0	0	0	0	465	
11	0	0	0	0	665	
12	0	0	0	0	465	
13	0	0	0	0	528	
14	0	0	0	0	428	
15	0	0	0	0	471	
0	0	0	0	0	546	
1	0	0	0	0	292	
2	0	0	0	0	580	
3	0	0	0	0	529	
4	0	0	0	0	459	
5	0	0	0	0	470	
6	0	0	0	0	481	
7	0	0	0	0	538	
8	0	0	0	0	465	
9	0	0	0	0	583	
10	0	0	0	0	440	
11	0	0	0	0	627	
12	0	0	0	0	495	
13	0	0	0	0	475	
14	0	0	0	0	485	
15	0	0	0	0	467	
0	0	0	0	0	562	
1	0	0	0	0	312	
2	0	0	0	0	425	
3	0	0	0	0	524	
4	0	0	0	0	413	
5	0	0	0	0	528	
6	0	0	0	0	570	
7	0	0	0	0	302	
8	0	0	0	0	500	
9	0	0	0	0	476	
10	0	0	0	0	400	
11	0	0	0	0	672	
12	0	0	0	0	473	
13	0	0	0	0	512	
14	0	0	0	0	540	
15	0	0	0	0	418	
0	0	0	0	0	643	
1	0	0	0	0	518	
2	0	0	0	0	652	
3	0	0	0	0	515	
4	0	0	0	0	481	
5	0	0	0	0	463	
6	0	0	0	0	536	
7	0	0	0	0	521	
8	0	0	0	0	498	
9	0	0	0	0	553	
10	0	0	0	0	435	
11	0	0	0	0	310	
12	0	0	0	0	549	
13	0	0	0	0	515	
14	0	0	0	0	615	
15	0	0	0	0	278	
0	0	0	0	0	368	
1	0	0	0	0	548	
2	0	0	0	0	364	
3	0	0	0	0	560	
4	0	0	0	0	458	
5	0	0	0	0	499	
6	0	0	0	0	579	
7	0	0	0	0	551	
8	0	0	0	0	497	
9	0	0	0	0	335	
10	0	0	0	0	475	
11	0	0	0	0	461	
12	0	0	0	0	494	
13	0	0	0	0	560	
14	0	0	0	0	345	
15	0	0	0	0	390	
0	0	0	0	0	563	
1	0	0	0	0	402	
2	0	0	0	0	364	
3	0	0	0	0	682	
4	0	0	0	0	731	
5	0	0	0	0	492	
6	0	0	0	0	599	
7	0	0	0	0	620	
8	0	0	0	0	455	
9	0	0	0	0	522	
10	0	0	0	0	512	
11	0	0	0	0	545	
12	0	0	0	0	367	
13	0	0	0	0	558	
14	0	0	0	0	363	
15	0	0	0	0	581	
0	0	0	0	0	397	
1	0	0	0	0	508	
2	0	0	0	0	462	
3	0	0	0	0	561	
4	0	0	0	0	557	
5	0	0	0	0	562	
6	0	0	0	0	391	
7	0	0	0	0	610	
8	0	0	0	0	504	
9	0	0	0	0	487	
10	0	0	0	0	632	
11	0	0	0	0	440	
12	0	0	0	0	649	
13	0	0	0	0	571	
14	0	0	0	0	487	
15	0	0	0	0	668	
0	0	0	0	0	394	
1	0	0	0	0	503	
2	0	0	0	0	394	
3	0	0	0	0	181	
4	0	0	0	0	177	
5	0	0	0	0	448	
6	0	0	0	0	421	
7	0	0	0	0	515	
8	0	0	0	0	563	
9	0	0	0	0	473	
10	0	0	0	0	692	
11	0	0	0	0	339	
12	0	0	0	0	598	
13	0	0	0	0	655	
14	0	0	0	0	633	
15	0	0	0	0	502	
0	0	0	0	0	510	
1	0	0	0	0	545	
2	0	0	0	0	442	
3	0	0	0	0	284	
4	0	0	0	0	404	
5	0	0	0	0	747	
6	0	0	0	0	421	
7	0	0	0	0	632	
8	0	0	0	0	367	
9	0	0	0	0	530	
10	0	0	0	0	435	
11	0	0	0	0	400	
12	0	0	0	0	521	
13	0	0	0	0	510	
14	0	0	0	0	599	
15	0	0	0	0	650	
0	0	0	0	0	587	
1	0	0	0	0	440	
2	0	0	0	0	351	
3	0	0	0	0	850	
4	0	0	0	0	461	
5	0	0	0	0	256	
6	0	0	0	0	615	
7	0	0	0	0	509	
8	0	0	0	0	423	
9	0	0	0	0	556	
10	0	0	0	0	446	
11	0	0	0	0	444	
12	0	0	0	0	553	
13	0	0	0	0	463	
14	0	0	0	0	480	
15	0	0	0	0	458	
0	0	0	0	0	467	
1	0	0	0	0	903	
2	0	0	0	0	433	
3	0	0	0	0	546	
4	0	0	0	0	538	
5	0	0	0	0	513	
6	0	0	0	0	508	
7	0	0	0	0	512	
8	0	0	0	0	533	
9	0	0	0	0	580	
10	0	0	0	0	469	
11	0	0	0	0	602	
12	0	0	0	0	469	
13	0	0	0	0	503	
14	0	0	0	0	513	
15	0	0	0	0	496	
0	0	0	0	0	482	
1	0	0	0	0	530	
2	0	0	0	0	493	
3	0	0	0	0	498	
4	0	0	0	0	488	
5	0	0	0	0	555	
6	0	0	0	0	500	
7	0	0	0	0	508	
8	0	0	0	0	501	
9	0	0	0	0	511	
10	0	0	0	0	507	
11	0	0	0	0	516	
12	0	0	0	0	497	
13	0	0	0	0	520	
14	0	0	0	0	508	
15	0	0	0	0	526	
0	0	0	0	0	512	
1	0	0	0	0	507	
2	0	0	0	0	515	
3	0	0	0	0	513	
4	0	0	0	0	504	
5	0	0	0	0	499	
6	0	0	0	0	509	
7	0	0	0	0	526	
8	0	0	0	0	505	
9	0	0	0	0	508	
10	0	0	0	0	507	
11	0	0	0	0	505	
12	0	0	0	0	507	
13	0	0	0	0	518	
14	0	0	0	0	503	
15	0	0	0	0	509	
0	0	0	0	0	514	
1	0	0	0	0	503	
2	0	0	0	0	501	
3	0	0	0	0	513	
4	0	0	0	0	507	
5	0	0	0	0	521	
6	0	0	0	0	504	
7	0	0	0	0	503	
8	0	0	0	0	512	
9	0	0	0	0	501	
10	0	0	0	0	516	
11	0	0	0	0	499	
12	0	0	0	0	536	
13	0	0	0	0	495	
14	0	0	0	0	513	
15	0	0	0	0	510	
0	0	0	0	0	511	
1	0	0	0	0	506	
2	0	0	0	0	511	
3	0	0	0	0	505	
4	0	0	0	0	501	
5	0	0	0	0	512	
6	0	0	0	0	510	
7	0	0	0	0	508	
8	0	0	0	0	510	
9	0	0	0	0	524	
10	0	0	0	0	506	
11	0	0	0	0	510	
12	0	0	0	0	510	
13	0	0	0	0	510	
14	0	0	0	0	505	
15	0	0	0	0	504	
0	0	0	0	0	508	
1	0	0	0	0	507	
2	0	0	0	0	523	
3	0	0	0	0	507	
4	0	0	0	0	514	
5	0	0	0	0	512	
6	0	0	0	0	509	
7	0	0	0	0	506	
8	0	0	0	0	508	
9	0	0	0	0	508	
10	0	0	0	0	517	
11	0	0	0	0	512	
12	0	0	0	0	504	
13	0	0	0	0	512	
14	0	0	0	0	503	
15	0	0	0	0	510	
0	0	0	0	0	507	
1	0	0	0	0	506	
2	0	0	0	0	508	
3	0	0	0	0	508	
4	0	0	0	0	509	
5	0	0	0	0	504	
6	0	0	0	0	510	
7	0	0	0	0	507	
8	0	0	0	0	504	
9	0	0	0	0	509	
10	0	0	0	0	508	
11	0	0	0	0	509	
12	0	0	0	0	507	
13	0	0	0	0	507	
14	0	0	0	0	513	
15	0	0	0	0	513	
0	0	0	0	0	504	
1	0	0	0	0	507	
2	0	0	0	0	506	
3	0	0	0	0	507	
4	0	0	0	0	508	
5	0	0	0	0	508	
6	0	0	0	0	509	
7	0	0	0	0	516	
8	0	0	0	0	513	
9	0	0	0	0	504	
10	0	0	0	0	510	
11	0	0	0	0	507	
12	0	0	0	0	505	
13	0	0	0	0	514	
14	0	0	0	0	504	
15	0	0	0	0	505	
0	0	0	0	0	506	
1	0	0	0	0	508	
2	0	0	0	0	508	
3	0	0	0	0	514	
4	0	0	0	0	503	
5	0	0	0	0	516	
6	0	0	0	0	511	
7	0	0	0	0	497	
8	0	0	0	0	535	
9	0	0	0	0	500	
10	0	0	0	0	503	
11	0	0	0	0	507	
12	0	0	0	0	512	
13	0	0	0	0	511	
14	0	0	0	0	510	
15	0	0	0	0	510	
0	0	0	0	0	505	
1	0	0	0	0	505	
2	0	0	0	0	508	
3	0	0	0	0	509	
4	0	0	0	0	512	
5	0	0	0	0	507	
6	0	0	0	0	507	
7	0	0	0	0	514	
8	0	0	0	0	508	
9	0	0	0	0	512	
10	0	0	0	0	511	
11	0	0	0	0	508	
12	0	0	0	0	496	
13	0	0	0	0	518	
14	0	0	0	0	512	
15	0	0	0	0	500	
0	0	0	0	0	507	
1	0	0	0	0	515	
2	0	0	0	0	517	
3	0	0	0	0	506	
4	0	0	0	0	504	
5	0	0	0	0	504	
6	0	0	0	0	508	
7	0	0	0	0	503	
8	0	0	0	0	507	
9	0	0	0	0	523	
10	0	0	0	0	501	
11	0	0	0	0	503	
12	0	0	0	0	509	
13	0	0	0	0	509	
14	0	0	0	0	512	
15	0	0	0	0	509	
0	0	0	0	0	505	
1	0	0	0	0	512	
2	0	0	0	0	509	
3	0	0	0	0	504	
4	0	0	0	0	505	
5	0	0	0	0	509	
6	0	0	0	0	510	
7	0	0	0	0	507	
8	0	0	0	0	504	
9	0	0	0	0	497	
10	0	0	0	0	512	
11	0	0	0	0	508	
12	0	0	0	0	509	
13	0	0	0	0	508	
14	0	0	0	0	510	
15	0	0	0	0	508	
0	0	0	0	0	505	
1	0	0	0	0	510	
2	0	0	0	0	508	
3	0	0	0	0	508	
4	0	0	0	0	511	
5	0	0	0	0	508	
6	0	0	0	0	512	
7	0	0	0	0	505	
8	0	0	0	0	506	
9	0	0	0	0	505	
10	0	0	0	0	495	
11	0	0	0	0	510	
12	0	0	0	0	509	
13	0	0	0	0	503	
14	0	0	0	0	508	
15	0	0	0	0	506	
0	0	0	0	0	510	
1	0	0	0	0	503	
2	0	0	0	0	511	
3	0	0	0	0	505	
4	0	0	0	0	507	
5	0	0	0	0	508	
6	0	0	0	0	512	
7	0	0	0	0	507	
8	0	0	0	0	506	
9	0	0	0	0	514	
10	0	0	0	0	509	
11	0	0	0	0	504	
12	0	0	0	0	492	
13	0	0	0	0	508	
14	0	0	0	0	505	
15	0	0	0	0	506	
0	0	0	0	0	508	
1	0	0	0	0	504	
2	0	0	0	0	512	
3	0	0	0	0	506	
4	0	0	0	0	498	
5	0	0	0	0	508	
6	0	0	0	0	510	
7	0	0	0	0	508	
8	0	0	0	0	510	
9	0	0	0	0	510	
10	0	0	0	0	510	
11	0	0	0	0	505	
12	0	0	0	0	507	
13	0	0	0	0	506	
14	0	0	0	0	510	
15	0	0	0	0	503	
0	0	0	0	0	510	
1	0	0	0	0	507	
2	0	0	0	0	509	
3	0	0	0	0	508	
4	0	0	0	0	510	
5	0	0	0	0	508	
6	0	0	0	0	508	
7	0	0	0	0	496	
8	0	0	0	0	507	
9	0	0	0	0	502	
10	0	0	0	0	509	
11	0	0	0	0	507	
12	0	0	0	0	511	
13	0	0	0	0	506	
14	0	0	0	0	500	
15	0	0	0	0	505	
0	0	0	0	0	511	
1	0	0	0	0	507	
2	0	0	0	0	508	
3	0	0	0	0	508	
4	0	0	0	0	510	
5	0	0	0	0	507	
6	0	0	0	0	510	
7	0	0	0	0	508	
8	0	0	0	0	512	
9	0	0	0	0	508	
10	0	0	0	0	511	
11	0	0	0	0	509	
12	0	0	0	0	509	
13	0	0	0	0	502	
14	0	0	0	0	517	
15	0	0	0	0	508	
0	0	0	0	0	509	
1	0	0	0	0	509	
2	0	0	0	0	511	
3	0	0	0	0	505	
4	0	0	0	0	508	
5	0	0	0	0	502	
6	0	0	0	0	511	
7	0	0	0	0	506	
8	0	0	0	0	505	
9	0	0	0	0	506	
10	0	0	0	0	509	
11	0	0	0	0	516	
12	0	0	0	0	511	
13	0	0	0	0	498	
14	0	0	0	0	511	
15	0	0	0	0	509	
0	0	0	0	0	511	
1	0	0	0	0	507	
2	0	0	0	0	511	
3	0	0	0	0	499	
4	0	0	0	0	512	
5	0	0	0	0	508	
6	0	0	0	0	510	
7	0	0	0	0	496	
8	0	0	0	0	510	
9	0	0	0	0	472	
10	0	0	0	0	515	
11	0	0	0	0	510	
12	0	0	0	0	508	
13	0	0	0	0	502	
14	0	0	0	0	513	
15	0	0	0	0	500	
0	0	0	0	0	514	
1	0	0	0	0	499	
2	0	0	0	0	510	
3	0	0	0	0	504	
4	0	0	0	0	511	
5	0	0	0	0	507	
6	0	0	0	0	520	
7	0	0	0	0	507	
8	0	0	0	0	512	
9	0	0	0	0	509	
10	0	0	0	0	508	
11	0	0	0	0	507	
12	0	0	0	0	509	
13	0	0	0	0	503	
14	0	0	0	0	500	
15	0	0	0	0	498	
0	0	0	0	0	503	
1	0	0	0	0	509	
2	0	0	0	0	513	
3	0	0	0	0	505	
4	0	0	0	0	510	
5	0	0	0	0	506	
6	0	0	0	0	515	
7	0	0	0	0	499	
8	0	0	0	0	507	
9	0	0	0	0	504	
10	0	0	0	0	514	
11	0	0	0	0	507	
12	0	0	0	0	510	
13	0	0	0	0	505	
14	0	0	0	0	516	
15	0	0	0	0	503	
0	0	0	0	0	513	
1	0	0	0	0	508	
2	0	0	0	0	512	
3	0	0	0	0	506	
4	0	0	0	0	507	
5	0	0	0	0	511	
6	0	0	0	0	514	
7	0	0	0	0	502	
8	0	0	0	0	510	
9	0	0	0	0	507	
10	0	0	0	0	511	
11	0	0	0	0	506	
12	0	0	0	0	510	
13	0	0	0	0	514	
14	0	0	0	0	515	
15	0	0	0	0	503	
0	0	0	0	0	511	
1	0	0	0	0	504	
2	0	0	0	0	508	
3	0	0	0	0	508	
4	0	0	0	0	507	
5	0	0	0	0	506	
6	0	0	0	0	521	
7	0	0	0	0	505	
8	0	0	0	0	515	
9	0	0	0	0	504	
10	0	0	0	0	505	
11	0	0	0	0	508	
12	0	0	0	0	536	
13	0	0	0	0	491	
14	0	0	0	0	524	
15	0	0	0	0	494	
0	0	0	0	0	505	
1	0	0	0	0	506	
2	0	0	0	0	497	
3	0	0	0	0	518	
4	0	0	0	0	510	
5	0	0	0	0	517	
6	0	0	0	0	501	
7	0	0	0	0	512	
8	0	0	0	0	508	
9	0	0	0	0	510	
10	0	0	0	0	511	
11	0	0	0	0	503	
12	0	0	0	0	506	
13	0	0	0	0	504	
14	0	0	0	0	515	
15	0	0	0	0	499	
0	0	0	0	0	507	
1	0	0	0	0	508	
2	0	0	0	0	510	
3	0	0	0	0	512	
4	0	0	0	0	508	
5	0	0	0	0	506	
6	0	0	0	0	524	
7	0	0	0	0	480	
8	0	0	0	0	528	
9	0	0	0	0	488	
10	0	0	0	0	535	
11	0	0	0	0	496	
12	0	0	0	0	519	
13	0	0	0	0	527	
14	0	0	0	0	504	
15	0	0	0	0	508	
0	0	0	0	0	501	
1	0	0	0	0	511	
2	0	0	0	0	509	
3	0	0	0	0	502	
4	0	0	0	0	509	
5	0	0	0	0	516	
6	0	0	0	0	502	
7	0	0	0	0	522	
8	0	0	0	0	504	
9	0	0	0	0	513	
10	0	0	0	0	536	
11	0	0	0	0	508	
12	0	0	0	0	495	
13	0	0	0	0	504	
14	0	0	0	0	508	
15	0	0	0	0	505	
0	0	0	0	0	510	
1	0	0	0	0	503	
2	0	0	0	0	533	
3	0	0	0	0	494	
4	0	0	0	0	501	
5	0	0	0	0	520	
6	0	0	0	0	500	
7	0	0	0	0	512	
8	0	0	0	0	510	
9	0	0	0	0	511	
10	0	0	0	0	498	
11	0	0	0	0	496	
12	0	0	0	0	507	
13	0	0	0	0	511	
14	0	0	0	0	498	
15	0	0	0	0	549	
0	0	0	0	0	509	
1	0	0	0	0	503	
2	0	0	0	0	499	
3	0	0	0	0	497	
4	0	0	0	0	505	
5	0	0	0	0	533	
6	0	0	0	0	500	
7	0	0	0	0	494	
8	0	0	0	0	514	
9	0	0	0	0	525	
10	0	0	0	0	506	
11	0	0	0	0	500	
12	0	0	0	0	487	
13	0	0	0	0	551	
14	0	0	0	0	495	
15	0	0	0	0	500	
0	0	0	0	0	531	
1	0	0	0	0	475	
2	0	0	0	0	556	
3	0	0	0	0	503	
4	0	0	0	0	501	
5	0	0	0	0	527	
6	0	0	0	0	491	
7	0	0	0	0	506	
8	0	0	0	0	498	
9	0	0	0	0	504	
10	0	0	0	0	533	
11	0	0	0	0	494	
12	0	0	0	0	528	
13	0	0	0	0	474	
14	0	0	0	0	509	
15	0	0	0	0	508	
0	0	0	0	0	510	
1	0	0	0	0	497	
2	0	0	0	0	536	
3	0	0	0	0	477	
4	0	0	0	0	515	
5	0	0	0	0	496	
6	0	0	0	0	509	
7	0	0	0	0	528	
8	0	0	0	0	511	
9	0	0	0	0	502	
10	0	0	0	0	489	
11	0	0	0	0	539	
12	0	0	0	0	499	
13	0	0	0	0	499	
14	0	0	0	0	519	
15	0	0	0	0	509	
0	0	0	0	0	510	
1	0	0	0	0	530	
2	0	0	0	0	516	
3	0	0	0	0	497	
4	0	0	0	0	508	
5	0	0	0	0	504	
6	0	0	0	0	521	
7	0	0	0	0	497	
8	0	0	0	0	508	
9	0	0	0	0	527	
10	0	0	0	0	496	
11	0	0	0	0	481	
12	0	0	0	0	516	
13	0	0	0	0	492	
14	0	0	0	0	516	
15	0	0	0	0	491	
0	0	0	0	0	505	
1	0	0	0	0	503	
2	0	0	0	0	510	
3	0	0	0	0	505	
4	0	0	0	0	495	
5	0	0	0	0	543	
6	0	0	0	0	507	
7	0	0	0	0	502	
8	0	0	0	0	505	
9	0	0	0	0	492	
10	0	0	0	0	495	
11	0	0	0	0	492	
12	0	0	0	0	556	
13	0	0	0	0	477	
14	0	0	0	0	492	
15	0	0	0	0	526	
0	0	0	0	0	546	
1	0	0	0	0	487	
2	0	0	0	0	575	
3	0	0	0	0	471	
4	0	0	0	0	488	
5	0	0	0	0	541	
6	0	0	0	0	466	
7	0	0	0	0	509	
8	0	0	0	0	467	
9	0	0	0	0	513	
10	0	0	0	0	483	
11	0	0	0	0	580	
12	0	0	0	0	351	
13	0	0	0	0	548	
14	0	0	0	0	406	
15	0	0	0	0	566	
0	0	0	0	0	713	
1	0	0	0	0	1022	
2	0	0	0	0	267	
3	0	0	0	0	524	
4	0	0	0	0	444	
5	0	0	0	0	431	
6	0	0	0	0	330	
7	0	0	0	0	1022	
8	0	0	0	0	280	
9	0	0	0	0	452	
10	0	0	0	0	482	
11	0	0	0	0	513	
12	0	0	0	0	376	
13	0	0	0	0	1022	
14	0	0	0	0	235	
15	0	0	0	0	432	
0	0	0	0	0	526	
1	0	0	0	0	0	
2	0	0	0	0	192	
3	0	0	0	0	529	
4	0	0	0	0	485	
5	0	0	0	0	498	
6	0	0	0	0	503	
7	0	0	0	0	792	
8	0	0	0	0	144	
9	0	0	0	0	636	
10	0	0	0	0	913	
11	0	0	0	0	1022	
12	0	0	0	0	360	
13	0	0	0	0	593	
14	0	0	0	0	396	
15	0	0	0	0	440	
0	0	0	0	0	610	
1	0	0	0	0	395	
2	0	0	0	0	348	
3	0	0	0	0	616	
4	0	0	0	0	453	
5	0	0	0	0	490	
6	0	0	0	0	1021	
7	0	0	0	0	151	
8	0	0	0	0	826	
9	0	0	0	0	515	
10	0	0	0	0	249	
11	0	0	0	0	292	
12	0	0	0	0	287	
13	0	0	0	0	395	
14	0	0	0	0	693	
15	0	0	0	0	149	
0	0	0	0	0	500	
1	0	0	0	0	408	
2	0	0	0	0	781	
3	0	0	0	0	340	
4	0	0	0	0	287	
5	0	0	0	0	290	
6	0	0	0	0	520	
7	0	0	0	0	328	
8	0	0	0	0	559	
9	0	0	0	0	605	
10	0	0	0	0	567	
11	0	0	0	0	622	
12	0	0	0	0	377	
13	0	0	0	0	730	
14	0	0	0	0	231	
15	0	0	0	0	391	
0	0	0	0	0	622	
1	0	0	0	0	505	
2	0	0	0	0	817	
3	0	0	0	0	541	
4	0	0	0	0	816	
5	0	0	0	0	372	
6	0	0	0	0	285	
7	0	0	0	0	410	
8	0	0	0	0	474	
9	0	0	0	0	510	
10	0	0	0	0	1022	
11	0	0	0	0	807	
12	0	0	0	0	514	
13	0	0	0	0	219	
14	0	0	0	0	860	
15	0	0	0	0	563	
0	0	0	0	0	406	
1	0	0	0	0	472	
2	0	0	0	0	395	
3	0	0	0	0	277	
4	0	0	0	0	664	
5	0	0	0	0	551	
6	0	0	0	0	494	
7	0	0	0	0	1022	
8	0	0	0	0	575	
9	0	0	0	0	376	
10	0	0	0	0	563	
11	0	0	0	0	510	
12	0	0	0	0	610	
13	0	0	0	0	308	
14	0	0	0	0	889	
15	0	0	0	0	0	
0	0	0	0	0	677	
1	0	0	0	0	208	
2	0	0	0	0	350	
3	0	0	0	0	435	
4	0	0	0	0	547	
5	0	0	0	0	690	
6	0	0	0	0	682	
7	0	0	0	0	438	
8	0	0	0	0	323	
9	0	0	0	0	169	
10	0	0	0	0	0	
11	0	0	0	0	266	
12	0	0	0	0	598	
13	0	0	0	0	279	
14	0	0	0	0	972	
15	0	0	0	0	286	
0	0	0	0	0	572	
1	0	0	0	0	240	
2	0	0	0	0	580	
3	0	0	0	0	372	
4	0	0	0	0	298	
5	0	0	0	0	1022	
6	0	0	0	0	430	
7	0	0	0	0	415	
8	0	0	0	0	402	
9	0	0	0	0	419	
10	0	0	0	0	536	
11	0	0	0	0	448	
12	0	0	0	0	396	
13	0	0	0	0	390	
14	0	0	0	0	614	
15	0	0	0	0	150	
0	0	0	0	0	402	
1	0	0	0	0	519	
2	0	0	0	0	496	
3	0	0	0	0	399	
4	0	0	0	0	566	
5	0	0	0	0	742	
6	0	0	0	0	467	
7	0	0	0	0	969	
8	0	0	0	0	460	
9	0	0	0	0	546	
10	0	0	0	0	697	
11	0	0	0	0	587	
12	0	0	0	0	678	
13	0	0	0	0	512	
14	0	0	0	0	444	
15	0	0	0	0	496	
0	0	0	0	0	570	
1	0	0	0	0	618	
2	0	0	0	0	839	
3	0	0	0	0	649	
4	0	0	0	0	263	
5	0	0	0	0	729	
6	0	0	0	0	653	
7	0	0	0	0	520	
8	0	0	0	0	450	
9	0	0	0	0	684	
10	0	0	0	0	626	
11	0	0	0	0	857	
12	0	0	0	0	122	
13	0	0	0	0	427	
14	0	0	0	0	846	
15	0	0	0	0	78	
0	0	0	0	0	600	
1	0	0	0	0	112	
2	0	0	0	0	429	
3	0	0	0	0	811	
4	0	0	0	0	380	
5	0	0	0	0	454	
6	0	0	0	0	223	
7	0	0	0	0	393	
8	0	0	0	0	596	
9	0	0	0	0	813	
10	0	0	0	0	383	
11	0	0	0	0	796	
12	0	0	0	0	426	
13	0	0	0	0	892	
14	0	0	0	0	387	
15	0	0	0	0	326	
0	0	0	0	0	568	
1	0	0	0	0	506	
2	0	0	0	0	1022	
3	0	0	0	0	371	
4	0	0	0	0	612	
5	0	0	0	0	140	
6	0	0	0	0	625	
7	0	0	0	0	684	
8	0	0	0	0	484	
9	0	0	0	0	585	
10	0	0	0	0	515	
11	0	0	0	0	588	
12	0	0	0	0	351	
13	0	0	0	0	533	
14	0	0	0	0	791	
15	0	0	0	0	531	
0	0	0	0	0	594	
1	0	0	0	0	1022	
2	0	0	0	0	92	
3	0	0	0	0	519	
4	0	0	0	0	0	
5	0	0	0	0	544	
6	0	0	0	0	664	
7	0	0	0	0	559	
8	0	0	0	0	349	
9	0	0	0	0	369	
10	0	0	0	0	0	
11	0	0	0	0	404	
12	0	0	0	0	1022	
13	0	0	0	0	745	
14	0	0	0	0	507	
15	0	0	0	0	475	
0	0	0	0	0	589	
1	0	0	0	0	452	
2	0	0	0	0	646	
3	0	0	0	0	143	
4	0	0	0	0	1022	
5	0	0	0	0	243	
6	0	0	0	0	190	
7	0	0	0	0	323	
8	0	0	0	0	501	
9	0	0	0	0	490	
10	0	0	0	0	726	
11	0	0	0	0	466	
12	0	0	0	0	852	
13	0	0	0	0	654	
14	0	0	0	0	527	
15	0	0	0	0	497	
0	0	0	0	0	604	
1	0	0	0	0	142	
2	0	0	0	0	0	
3	0	0	0	0	1022	
4	0	0	0	0	318	
5	0	0	0	0	368	
6	0	0	0	0	515	
7	0	0	0	0	871	
8	0	0	0	0	0	
9	0	0	0	0	260	
10	0	0	0	0	471	
11	0	0	0	0	826	
12	0	0	0	0	361	
13	0	0	0	0	422	
14	0	0	0	0	471	
15	0	0	0	0	1022	
0	0	0	0	0	608	
1	0	0	0	0	635	
2	0	0	0	0	314	
3	0	0	0	0	529	
4	0	0	0	0	502	
5	0	0	0	0	269	
6	0	0	0	0	566	
7	0	0	0	0	493	
8	0	0	0	0	664	
9	0	0	0	0	343	
10	0	0	0	0	316	
11	0	0	0	0	431	
12	0	0	0	0	575	
13	0	0	0	0	359	
14	0	0	0	0	860	
15	0	0	0	0	323	
0	0	0	0	0	307	
1	0	0	0	0	39	
2	0	0	0	0	827	
3	0	0	0	0	185	
4	0	0	0	0	240	
5	0	0	0	0	473	
6	0	0	0	0	809	
7	0	0	0	0	407	
8	0	0	0	0	484	
9	0	0	0	0	289	
10	0	0	0	0	971	
11	0	0	0	0	356	
12	0	0	0	0	266	
13	0	0	0	0	395	
14	0	0	0	0	322	
15	0	0	0	0	892	
0	0	0	0	0	164	
1	0	0	0	0	376	
2	0	0	0	0	512	
3	0	0	0	0	536	
4	0	0	0	0	447	
5	0	0	0	0	776	
6	0	0	0	0	340	
7	0	0	0	0	592	
8	0	0	0	0	847	
9	0	0	0	0	125	
10	0	0	0	0	467	
11	0	0	0	0	444	
12	0	0	0	0	762	
13	0	0	0	0	302	
14	0	0	0	0	671	
15	0	0	0	0	897	
0	0	0	0	0	201	
1	0	0	0	0	251	
2	0	0	0	0	423	
3	0	0	0	0	600	
4	0	0	0	0	0	
5	0	0	0	0	824	
6	0	0	0	0	328	
7	0	0	0	0	512	
8	0	0	0	0	134	
9	0	0	0	0	647	
10	0	0	0	0	531	
11	0	0	0	0	0	
12	0	0	0	0	343	
13	0	0	0	0	920	
14	0	0	0	0	459	
15	0	0	0	0	611	
0	0	0	0	0	413	
1	0	0	0	0	478	
2	0	0	0	0	147	
3	0	0	0	0	555	
4	0	0	0	0	368	
5	0	0	0	0	590	
6	0	0	0	0	458	
7	0	0	0	0	508	
8	0	0	0	0	492	
9	0	0	0	0	837	
10	0	0	0	0	117	
11	0	0	0	0	552	
12	0	0	0	0	416	
13	0	0	0	0	558	
14	0	0	0	0	303	
15	0	0	0	0	427	
0	0	0	0	0	527	
1	0	0	0	0	505	
2	0	0	0	0	639	
3	0	0	0	0	255	
4	0	0	0	0	261	
5	0	0	0	0	558	
6	0	0	0	0	607	
7	0	0	0	0	738	
8	0	0	0	0	405	
9	0	0	0	0	591	
10	0	0	0	0	951	
11	0	0	0	0	761	
12	0	0	0	0	678	
13	0	0	0	0	900	
14	0	0	0	0	419	
15	0	0	0	0	547	
0	0	0	0	0	497	
1	0	0	0	0	422	
2	0	0	0	0	94	
3	0	0	0	0	680	
4	0	0	0	0	407	
5	0	0	0	0	399	
6	0	0	0	0	837	
7	0	0	0	0	467	
8	0	0	0	0	448	
9	0	0	0	0	581	
10	0	0	0	0	1022	
11	0	0	0	0	0	
12	0	0	0	0	435	
13	0	0	0	0	372	
14	0	0	0	0	346	
15	0	0	0	0	605	
0	0	0	0	0	406	
1	0	0	0	0	287	
2	0	0	0	0	375	
3	0	0	0	0	455	
4	0	0	0	0	465	
5	0	0	0	0	404	
6	0	0	0	0	645	
7	0	0	0	0	533	
8	0	0	0	0	356	
9	0	0	0	0	393	
10	0	0	0	0	719	
11	0	0	0	0	634	
12	0	0	0	0	519	
13	0	0	0	0	345	
14	0	0	0	0	239	
15	0	0	0	0	489	
0	0	0	0	0	511	
1	0	0	0	0	442	
2	0	0	0	0	386	
3	0	0	0	0	618	
4	0	0	0	0	464	
5	0	0	0	0	664	
6	0	0	0	0	400	
7	0	0	0	0	459	
8	0	0	0	0	501	
9	0	0	0	0	585	
10	0	0	0	0	557	
11	0	0	0	0	171	
12	0	0	0	0	398	
13	0	0	0	0	579	
14	0	0	0	0	472	
15	0	0	0	0	530	
0	0	0	0	0	532	
1	0	0	0	0	536	
2	0	0	0	0	526	
3	0	0	0	0	424	
4	0	0	0	0	752	
5	0	0	0	0	264	
6	0	0	0	0	463	
7	0	0	0	0	315	
8	0	0	0	0	561	
9	0	0	0	0	459	
10	0	0	0	0	462	
11	0	0	0	0	397	
12	0	0	0	0	492	
13	0	0	0	0	825	
14	0	0	0	0	308	
15	0	0	0	0	449	
0	0	0	0	0	653	
1	0	0	0	0	574	
2	0	0	0	0	358	
3	0	0	0	0	531	
4	0	0	0	0	517	
5	0	0	0	0	615	
6	0	0	0	0	883	
7	0	0	0	0	227	
8	0	0	0	0	591	
9	0	0	0	0	520	
10	0	0	0	0	473	
11	0	0	0	0	495	
12	0	0	0	0	516	
13	0	0	0	0	778	
14	0	0	0	0	962	
15	0	0	0	0	712	
0	0	0	0	0	417	
1	0	0	0	0	527	
2	0	0	0	0	556	
3	0	0	0	0	442	
4	0	0	0	0	534	
5	0	0	0	0	115	
6	0	0	0	0	674	
7	0	0	0	0	525	
8	0	0	0	0	471	
9	0	0	0	0	493	
10	0	0	0	0	616	
11	0	0	0	0	668	
12	0	0	0	0	451	
13	0	0	0	0	473	
14	0	0	0	0	443	
15	0	0	0	0	459	
0	0	0	0	0	533	
1	0	0	0	0	437	
2	0	0	0	0	615	
3	0	0	0	0	838	
4	0	0	0	0	264	
5	0	0	0	0	578	
6	0	0	0	0	649	
7	0	0	0	0	546	
8	0	0	0	0	571	
9	0	0	0	0	640	
10	0	0	0	0	72	
11	0	0	0	0	430	
12	0	0	0	0	666	
13	0	0	0	0	547	
14	0	0	0	0	403	
15	0	0	0	0	483	
0	0	0	0	0	504	
1	0	0	0	0	485	
2	0	0	0	0	625	
3	0	0	0	0	639	
4	0	0	0	0	587	
5	0	0	0	0	425	
6	0	0	0	0	664	
7	0	0	0	0	413	
8	0	0	0	0	436	
9	0	0	0	0	513	
10	0	0	0	0	536	
11	0	0	0	0	474	
12	0	0	0	0	706	
13	0	0	0	0	798	
14	0	0	0	0	319	
15	0	0	0	0	490	
0	0	0	0	0	472	
1	0	0	0	0	508	
2	0	0	0	0	551	
3	0	0	0	0	424	
4	0	0	0	0	1022	
5	0	0	0	0	361	
6	0	0	0	0	576	
7	0	0	0	0	463	
8	0	0	0	0	556	
9	0	0	0	0	531	
10	0	0	0	0	502	
11	0	0	0	0	521	
12	0	0	0	0	803	
13	0	0	0	0	435	
14	0	0	0	0	526	
15	0	0	0	0	396	
0	0	0	0	0	434	
1	0	0	0	0	660	
2	0	0	0	0	483	
3	0	0	0	0	611	
4	0	0	0	0	667	
5	0	0	0	0	480	
6	0	0	0	0	900	
7	0	0	0	0	351	
8	0	0	0	0	568	
9	0	0	0	0	480	
10	0	0	0	0	484	
11	0	0	0	0	597	
12	0	0	0	0	408	
13	0	0	0	0	593	
14	0	0	0	0	720	
15	0	0	0	0	368	
0	0	0	0	0	560	
1	0	0	0	0	508	
2	0	0	0	0	495	
3	0	0	0	0	518	
4	0	0	0	0	607	
5	0	0	0	0	603	
6	0	0	0	0	480	
7	0	0	0	0	439	
8	0	0	0	0	621	
9	0	0	0	0	476	
10	0	0	0	0	385	
11	0	0	0	0	520	
12	0	0	0	0	534	
13	0	0	0	0	525	
14	0	0	0	0	537	
15	0	0	0	0	715	
0	0	0	0	0	339	
1	0	0	0	0	475	
2	0	0	0	0	508	
3	0	0	0	0	512	
4	0	0	0	0	389	
5	0	0	0	0	526	
6	0	0	0	0	451	
7	0	0	0	0	551	
8	0	0	0	0	586	
9	0	0	0	0	451	
10	0	0	0	0	417	
11	0	0	0	0	539	
12	0	0	0	0	497	
13	0	0	0	0	504	
14	0	0	0	0	443	
15	0	0	0	0	450	
0	0	0	0	0	463	
1	0	0	0	0	701	
2	0	0	0	0	525	
3	0	0	0	0	447	
4	0	0	0	0	864	
5	0	0	0	0	459	
6	0	0	0	0	468	
7	0	0	0	0	537	
8	0	0	0	0	435	
9	0	0	0	0	805	
10	0	0	0	0	722	
11	0	0	0	0	584	
12	0	0	0	0	514	
13	0	0	0	0	498	
14	0	0	0	0	526	
15	0	0	0	0	519	
0	0	0	0	0	476	
1	0	0	0	0	523	
2	0	0	0	0	759	
3	0	0	0	0	653	
4	0	0	0	0	568	
5	0	0	0	0	523	
6	0	0	0	0	488	
7	0	0	0	0	489	
8	0	0	0	0	502	
9	0	0	0	0	503	
10	0	0	0	0	621	
11	0	0	0	0	414	
12	0	0	0	0	442	
13	0	0	0	0	570	
14	0	0	0	0	742	
15	0	0	0	0	566	
0	0	0	0	0	472	
1	0	0	0	0	633	
2	0	0	0	0	0	
3	0	0	0	0	918	
4	0	0	0	0	261	
5	0	0	0	0	313	
6	0	0	0	0	591	
7	0	0	0	0	517	
8	0	0	0	0	593	
9	0	0	0	0	355	
10	0	0	0	0	1022	
11	0	0	0	0	894	
12	0	0	0	0	740	
13	0	0	0	0	815	
14	0	0	0	0	0	
15	0	0	0	0	9	
0	0	0	0	0	403	
1	0	0	0	0	483	
2	0	0	0	0	498	
3	0	0	0	0	497	
4	0	0	0	0	505	
5	0	0	0	0	502	
6	0	0	0	0	506	
7	0	0	0	0	503	
8	0	0	0	0	508	
9	0	0	0	0	507	
10	0	0	0	0	508	
11	0	0	0	0	507	
12	0	0	0	0	1022	
13	0	0	0	0	922	
14	0	0	0	0	736	
15	0	0	0	0	720	
0	0	0	0	0	0	
1	0	0	0	0	183	
2	0	0	0	0	438	
3	0	0	0	0	488	
4	0	0	0	0	503	
5	0	0	0	0	504	
6	0	0	0	0	508	
7	0	0	0	0	503	
8	0	0	0	0	509	
9	0	0	0	0	505	
10	0	0	0	0	507	
11	0	0	0	0	506	
12	0	0	0	0	506	
13	0	0	0	0	508	
14	0	0	0	0	507	
15	0	0	0	0	507	
0	0	0	0	0	510	
1	0	0	0	0	508	
2	0	0	0	0	509	
3	0	0	0	0	508	
4	0	0	0	0	504	
5	0	0	0	0	508	
6	0	0	0	0	506	
7	0	0	0	0	507	
8	0	0	0	0	503	
9	0	0	0	0	505	
10	0	0	0	0	511	
11	0	0	0	0	509	
12	0	0	0	0	509	
13	0	0	0	0	507	
14	0	0	0	0	509	
15	0	0	0	0	508	
0	0	0	0	0	513	
1	0	0	0	0	511	
2	0	0	0	0	510	
3	0	0	0	0	509	
4	0	0	0	0	508	
5	0	0	0	0	509	
6	0	0	0	0	507	
7	0	0	0	0	507	
8	0	0	0	0	507	
9	0	0	0	0	508	
10	0	0	0	0	515	
11	0	0	0	0	507	
12	0	0	0	0	511	
13	0	0	0	0	507	
14	0	0	0	0	506	
15	0	0	0	0	507	
0	0	0	0	0	508	
1	0	0	0	0	508	
2	0	0	0	0	506	
3	0	0	0	0	511	
4	0	0	0	0	506	
5	0	0	0	0	509	
6	0	0	0	0	512	
7	0	0	0	0	507	
8	0	0	0	0	507	
9	0	0	0	0	509	
10	0	0	0	0	509	
11	0	0	0	0	506	
12	0	0	0	0	507	
13	0	0	0	0	509	
14	0	0	0	0	503	
15	0	0	0	0	511	
0	0	0	0	0	508	
1	0	0	0	0	507	
2	0	0	0	0	509	
3	0	0	0	0	508	
4	0	0	0	0	508	
5	0	0	0	0	510	
6	0	0	0	0	507	
7	0	0	0	0	511	
8	0	0	0	0	508	
9	0	0	0	0	507	
10	0	0	0	0	509	
11	0	0	0	0	508	
12	0	0	0	0	504	
13	0	0	0	0	509	
14	0	0	0	0	511	
15	0	0	0	0	507	
0	0	0	0	0	508	
1	0	0	0	0	507	
2	0	0	0	0	506	
3	0	0	0	0	510	
4	0	0	0	0	510	
5	0	0	0	0	504	
6	0	0	0	0	508	
7	0	0	0	0	507	
8	0	0	0	0	507	
9	0	0	0	0	505	
10	0	0	0	0	511	
11	0	0	0	0	508	
12	0	0	0	0	504	
13	0	0	0	0	507	
14	0	0	0	0	507	
15	0	0	0	0	509	
0	0	0	0	0	505	
1	0	0	0	0	509	
2	0	0	0	0	508	
3	0	0	0	0	507	
4	0	0	0	0	506	
5	0	0	0	0	502	
6	0	0	0	0	511	
7	0	0	0	0	508	
8	0	0	0	0	509	
9	0	0	0	0	508	
10	0	0	0	0	506	
11	0	0	0	0	511	
12	0	0	0	0	508	
13	0	0	0	0	508	
14	0	0	0	0	509	
15	0	0	0	0	507	
0	0	0	0	0	509	
1	0	0	0	0	510	
2	0	0	0	0	507	
3	0	0	0	0	511	
4	0	0	0	0	507	
5	0	0	0	0	515	
6	0	0	0	0	511	
7	0	0	0	0	509	
8	0	0	0	0	508	
9	0	0	0	0	509	
10	0	0	0	0	510	
11	0	0	0	0	510	
12	0	0	0	0	505	
13	0	0	0	0	511	
14	0	0	0	0	508	
15	0	0	0	0	508	
0	0	0	0	0	509	
1	0	0	0	0	507	
2	0	0	0	0	509	
3	0	0	0	0	504	
4	0	0	0	0	507	
5	0	0	0	0	509	
6	0	0	0	0	511	
7	0	0	0	0	505	
8	0	0	0	0	508	
9	0	0	0	0	507	
10	0	0	0	0	510	
11	0	0	0	0	510	
12	0	0	0	0	504	
13	0	0	0	0	507	
14	0	0	0	0	509	
15	0	0	0	0	508	
0	0	0	0	0	508	
1	0	0	0	0	509	
2	0	0	0	0	508	
3	0	0	0	0	511	
4	0	0	0	0	508	
5	0	0	0	0	512	
6	0	0	0	0	510	
7	0	0	0	0	507	
8	0	0	0	0	506	
9	0	0	0	0	508	
10	0	0	0	0	509	
11	0	0	0	0	507	
12	0	0	0	0	506	
13	0	0	0	0	506	
14	0	0	0	0	510	
15	0	0	0	0	509	
0	0	0	0	0	507	
1	0	0	0	0	508	
2	0	0	0	0	509	
3	0	0	0	0	508	
4	0	0	0	0	508	
5	0	0	0	0	508	
6	0	0	0	0	504	
7	0	0	0	0	518	
8	0	0	0	0	507	
9	0	0	0	0	507	
10	0	0	0	0	510	
11	0	0	0	0	507	
12	0	0	0	0	506	
13	0	0	0	0	508	
14	0	0	0	0	508	
15	0	0	0	0	507	
0	0	0	0	0	507	
1	0	0	0	0	501	
2	0	0	0	0	512	
3	0	0	0	0	506	
4	0	0	0	0	507	
5	0	0	0	0	509	
6	0	0	0	0	508	
7	0	0	0	0	507	
8	0	0	0	0	511	
9	0	0	0	0	509	
10	0	0	0	0	510	
11	0	0	0	0	505	
12	0	0	0	0	508	
13	0	0	0	0	507	
14	0	0	0	0	510	
15	0	0	0	0	508	
0	0	0	0	0	507	
1	0	0	0	0	508	
2	0	0	0	0	510	
3	0	0	0	0	504	
4	0	0	0	0	505	
5	0	0	0	0	507	
6	0	0	0	0	508	
7	0	0	0	0	509	
8	0	0	0	0	507	
9	0	0	0	0	508	
10	0	0	0	0	509	
11	0	0	0	0	508	
12	0	0	0	0	508	
13	0	0	0	0	507	
14	0	0	0	0	509	
15	0	0	0	0	506	
0	0	0	0	0	508	
1	0	0	0	0	508	
2	0	0	0	0	509	
3	0	0	0	0	508	
4	0	0	0	0	504	
5	0	0	0	0	507	
6	0	0	0	0	508	
7	0	0	0	0	508	
8	0	0	0	0	509	
9	0	0	0	0	508	
10	0	0	0	0	509	
11	0	0	0	0	508	
12	0	0	0	0	508	
13	0	0	0	0	508	
14	0	0	0	0	508	
15	0	0	0	0	506	
0	0	0	0	0	509	
1	0	0	0	0	506	
2	0	0	0	0	506	
3	0	0	0	0	508	
4	0	0	0	0	507	
5	0	0	0	0	510	
6	0	0	0	0	507	
7	0	0	0	0	507	
8	0	0	0	0	508	
9	0	0	0	0	509	
10	0	0	0	0	510	
11	0	0	0	0	508	
12	0	0	0	0	506	
13	0	0	0	0	506	
14	0	0	0	0	510	
15	0	0	0	0	510	
0	0	0	0	0	508	
1	0	0	0	0	507	
2	0	0	0	0	508	
3	0	0	0	0	508	
4	0	0	0	0	507	
5	0	0	0	0	507	
6	0	0	0	0	509	
7	0	0	0	0	508	
8	0	0	0	0	508	
9	0	0	0	0	508	
10	0	0	0	0	508	
11	0	0	0	0	508	
12	0	0	0	0	508	
13	0	0	0	0	507	
14	0	0	0	0	509	
15	0	0	0	0	508	
0	0	0	0	0	508	
1	0	0	0	0	508	
2	0	0	0	0	508	
3	0	0	0	0	508	
4	0	0	0	0	507	
5	0	0	0	0	508	
6	0	0	0	0	508	
7	0	0	0	0	508	
8	0	0	0	0	508	
9	0	0	0	0	508	
10	0	0	0	0	508	
11	0	0	0	0	508	
12	0	0	0	0	508	
13	0	0	0	0	507	
14	0	0	0	0	508	
15	0	0	0	0	507	
0	0	0	0	0	508	
1	0	0	0	0	508	
2	0	0	0	0	508	
3	0	0	0	0	508	
4	0	0	0	0	508	
5	0	0	0	0	508	
6	0	0	0	0	508	
7	0	0	0	0	508	
8	0	0	0	0	507	
9	0	0	0	0	507	
10	0	0	0	0	508	
11	0	0	0	0	508	
12	0	0	0	0	508	
13	0	0	0	0	507	
14	0	0	0	0	508	
15	0	0	0	0	508	
0	0	0	0	0	508	
1	0	0	0	0	508	
2	0	0	0	0	508	
3	0	0	0	0	508	
4	0	0	0	0	508	
5	0	0	0	0	508	
6	0	0	0	0	509	
7	0	0	0	0	508	
8	0	0	0	0	508	
9	0	0	0	0	508	
10	0	0	0	0	508	
11	0	0	0	0	508	
12	0	0	0	0	508	
13	0	0	0	0	507	
14	0	0	0	0	509	
15	0	0	0	0	508	
0	0	0	0	0	508	
1	0	0	0	0	508	
2	0	0	0	0	508	
3	0	0	0	0	508	
4	0	0	0	0	507	
5	0	0	0	0	508	
6	0	0	0	0	508	
7	0	0	0	0	508	
8	0	0	0	0	508	
9	0	0	0	0	508	
10	0	0	0	0	508	
11	0	0	0	0	508	
12	0	0	0	0	508	
13	0	0	0	0	508	
14	0	0	0	0	508	
15	0	0	0	0	508	
0	0	0	0	0	508	
1	0	0	0	0	507	
2	0	0	0	0	509	
3	0	0	0	0	508	
4	0	0	0	0	508	
5	0	0	0	0	508	
6	0	0	0	0	508	
7	0	0	0	0	508	
8	0	0	0	0	507	
9	0	0	0	0	508	
10	0	0	0	0	509	
11	0	0	0	0	508	
12	0	0	0	0	508	
13	0	0	0	0	508	
14	0	0	0	0	508	
15	0	0	0	0	508	
0	0	0	0	0	508	
1	0	0	0	0	508	
2	0	0	0	0	509	
3	0	0	0	0	507	
4	0	0	0	0	508	
5	0	0	0	0	508	
6	0	0	0	0	509	
7	0	0	0	0	507	
8	0	0	0	0	508	
9	0	0	0	0	508	
10	0	0	0	0	509	
11	0	0	0	0	508	
12	0	0	0	0	508	
13	0	0	0	0	508	
14	0	0	0	0	508	
15	0	0	0	0	508	
0	0	0	0	0	508	
1	0	0	0	0	508	
2	0	0	0	0	508	
3	0	0	0	0	508	
4	0	0	0	0	508	
5	0	0	0	0	508	
6	0	0	0	0	509	
7	0	0	0	0	508	
8	0	0	0	0	508	
9	0	0	0	0	508	
10	0	0	0	0	508	
11	0	0	0	0	508	
12	0	0	0	0	508	
13	0	0	0	0	507	
14	0	0	0	0	509	
15	0	0	0	0	508	
0	0	0	0	0	508	
1	0	0	0	0	507	
2	0	0	0	0	508	
3	0	0	0	0	507	
4	0	0	0	0	508	
5	0	0	0	0	508	
6	0	0	0	0	508	
7	0	0	0	0	508	
8	0	0	0	0	508	
9	0	0	0	0	508	
10	0	0	0	0	508	
11	0	0	0	0	508	
12	0	0	0	0	508	
13	0	0	0	0	508	
14	0	0	0	0	509	
15	0	0	0	0	508	
0	0	0	0	0	508	
1	0	0	0	0	508	
2	0	0	0	0	508	
3	0	0	0	0	508	
4	0	0	0	0	507	
5	0	0	0	0	508	
6	0	0	0	0	509	
7	0	0	0	0	508	
8	0	0	0	0	507	
9	0	0	0	0	508	
10	0	0	0	0	508	
11	0	0	0	0	508	
12	0	0	0	0	508	
13	0	0	0	0	508	
14	0	0	0	0	508	
15	0	0	0	0	508	
0	0	0	0	0	508	
1	0	0	0	0	508	
2	0	0	0	0	509	
3	0	0	0	0	508	
4	0	0	0	0	507	
5	0	0	0	0	508	
6	0	0	0	0	508	
7	0	0	0	0	508	
8	0	0	0	0	508	
9	0	0	0	0	507	
10	0	0	0	0	509	
11	0	0	0	0	508	
12	0	0	0	0	508	
13	0	0	0	0	508	
14	0	0	0	0	508	
15	0	0	0	0	508	
0	0	0	0	0	508	
1	0	0	0	0	508	
2	0	0	0	0	509	
3	0	0	0	0	508	
4	0	0	0	0	508	
5	0	0	0	0	508	
6	0	0	0	0	509	
7	0	0	0	0	508	
8	0	0	0	0	508	
9	0	0	0	0	508	
10	0	0	0	0	508	
11	0	0	0	0	508	
12	0	0	0	0	508	
13	0	0	0	0	508	
14	0	0	0	0	508	
15	0	0	0	0	508	
0	0	0	0	0	508	
1	0	0	0	0	508	
2	0	0	0	0	508	
3	0	0	0	0	508	
4	0	0	0	0	507	
5	0	0	0	0	508	
6	0	0	0	0	508	
7	0	0	0	0	508	
8	0	0	0	0	507	
9	0	0	0	0	508	
10	0	0	0	0	508	
11	0	0	0	0	508	
12	0	0	0	0	508	
13	0	0	0	0	508	
14	0	0	0	0	508	
15	0	0	0	0	508	
0	0	0	0	0	508	
1	0	0	0	0	508	
2	0	0	0	0	508	
3	0	0	0	0	508	
4	0	0	0	0	508	
5	0	0	0	0	508	
6	0	0	0	0	508	
7	0	0	0	0	508	
8	0	0	0	0	508	
9	0	0	0	0	508	
10	0	0	0	0	508	
11	0	0	0	0	508	
12	0	0	0	0	508	
13	0	0	0	0	508	
14	0	0	0	0	509	
15	0	0	0	0	507	
0	0	0	0	0	508	
1	0	0	0	0	508	
2	0	0	0	0	509	
3	0	0	0	0	507	
4	0	0	0	0	507	
5	0	0	0	0	508	
6	0	0	0	0	509	
7	0	0	0	0	508	
8	0	0	0	0	508	
9	0	0	0	0	508	
10	0	0	0	0	509	
11	0	0	0	0	508	
12	0	0	0	0	508	
13	0	0	0	0	508	
14	0	0	0	0	509	
15	0	0	0	0	508	
0	0	0	0	0	508	
1	0	0	0	0	508	
2	0	0	0	0	508	
3	0	0	0	0	508	
4	0	0	0	0	508	
5	0	0	0	0	508	
6	0	0	0	0	508	
7	0	0	0	0	508	
8	0	0	0	0	508	
9	0	0	0	0	508	
10	0	0	0	0	508	
11	0	0	0	0	508	
12	0	0	0	0	508	
13	0	0	0	0	508	
14	0	0	0	0	508	
15	0	0	0	0	508	
0	0	0	0	0	507	
1	0	0	0	0	508	
2	0	0	0	0	508	
3	0	0	0	0	508	
4	0	0	0	0	508	
5	0	0	0	0	508	
6	0	0	0	0	508	
7	0	0	0	0	508	
8	0	0	0	0	507	
9	0	0	0	0	508	
10	0	0	0	0	509	
11	0	0	0	0	507	
12	0	0	0	0	508	
13	0	0	0	0	508	
14	0	0	0	0	508	
15	0	0	0	0	508	
0	0	0	0	0	507	
1	0	0	0	0	508	
2	0	0	0	0	508	
3	0	0	0	0	508	
4	0	0	0	0	508	
5	0	0	0	0	508	
6	0	0	0	0	508	
7	0	0	0	0	509	
8	0	0	0	0	508	
9	0	0	0	0	508	
10	0	0	0	0	508	
11	0	0	0	0	508	
12	0	0	0	0	508	
13	0	0	0	0	508	
14	0	0	0	0	508	
15	0	0	0	0	508	
0	0	0	0	0	508	
1	0	0	0	0	508	
2	0	0	0	0	509	
3	0	0	0	0	508	
4	0	0	0	0	508	
5	0	0	0	0	508	
6	0	0	0	0	508	
7	0	0	0	0	508	
8	0	0	0	0	507	
9	0	0	0	0	508	
10	0	0	0	0	508	
11	0	0	0	0	508	
12	0	0	0	0	508	
13	0	0	0	0	508	
14	0	0	0	0	508	
15	0	0	0	0	508	
0	0	0	0	0	508	
1	0	0	0	0	509	
2	0	0	0	0	509	
3	0	0	0	0	508	
4	0	0	0	0	508	
5	0	0	0	0	508	
6	0	0	0	0	509	
7	0	0	0	0	508	
8	0	0	0	0	508	
9	0	0	0	0	508	
10	0	0	0	0	508	
11	0	0	0	0	508	
12	0	0	0	0	507	
13	0	0	0	0	508	
14	0	0	0	0	509	
15	0	0	0	0	508	
0	0	0	0	0	507	
1	0	0	0	0	508	
2	0	0	0	0	509	
3	0	0	0	0	508	
4	0	0	0	0	508	
5	0	0	0	0	508	
6	0	0	0	0	509	
7	0	0	0	0	508	
8	0	0	0	0	508	
9	0	0	0	0	508	
10	0	0	0	0	508	
11	0	0	0	0	508	
12	0	0	0	0	508	
13	0	0	0	0	508	
14	0	0	0	0	508	
15	0	0	0	0	508	
0	0	0	0	0	508	
1	0	0	0	0	508	
2	0	0	0	0	508	
3	0	0	0	0	508	
4	0	0	0	0	507	
5	0	0	0	0	508	
6	0	0	0	0	508	
7	0	0	0	0	508	
8	0	0	0	0	507	
9	0	0	0	0	508	
10	0	0	0	0	508	
11	0	0	0	0	508	
12	0	0	0	0	508	
13	0	0	0	0	508	
14	0	0	0	0	508	
15	0	0	0	0	508	
0	0	0	0	0	508	
1	0	0	0	0	508	
2	0	0	0	0	509	
3	0	0	0	0	507	
4	0	0	0	0	507	
5	0	0	0	0	508	
6	0	0	0	0	508	
7	0	0	0	0	508	
8	0	0	0	0	508	
9	0	0	0	0	508	
10	0	0	0	0	508	
11	0	0	0	0	508	
12	0	0	0	0	508	
13	0	0	0	0	508	
14	0	0	0	0	508	
15	0	0	0	0	508	
0	0	0	0	0	507	
1	0	0	0	0	508	
2	0	0	0	0	508	
3	0	0	0	0	508	
4	0	0	0	0	508	
5	0	0	0	0	508	
6	0	0	0	0	508	
7	0	0	0	0	507	
8	0	0	0	0	508	
9	0	0	0	0	508	
10	0	0	0	0	508	
11	0	0	0	0	508	
12	0	0	0	0	508	
13	0	0	0	0	507	
14	0	0	0	0	509	
15	0	0	0	0	508	
0	0	0	0	0	508	
1	0	0	0	0	508	
2	0	0	0	0	508	
3	0	0	0	0	508	
4	0	0	0	0	508	
5	0	0	0	0	508	
6	0	0	0	0	508	
7	0	0	0	0	508	
8	0	0	0	0	508	
9	0	0	0	0	508	
10	0	0	0	0	508	
11	0	0	0	0	508	
12	0	0	0	0	507	
13	0	0	0	0	508	
14	0	0	0	0	509	
15	0	0	0	0	508	
0	0	0	0	0	507	
1	0	0	0	0	508	
2	0	0	0	0	508	
3	0	0	0	0	508	
4	0	0	0	0	508	
5	0	0	0	0	508	
6	0	0	0	0	508	
7	0	0	0	0	508	
8	0	0	0	0	508	
9	0	0	0	0	508	
10	0	0	0	0	509	
11	0	0	0	0	508	
12	0	0	0	0	508	
13	0	0	0	0	508	
14	0	0	0	0	508	
15	0	0	0	0	508	
0	0	0	0	0	508	
1	0	0	0	0	508	
2	0	0	0	0	509	
3	0	0	0	0	508	
4	0	0	0	0	508	
5	0	0	0	0	508	
6	0	0	0	0	508	
7	0	0	0	0	508	
8	0	0	0	0	508	
9	0	0	0	0	508	
10	0	0	0	0	508	
11	0	0	0	0	507	
12	0	0	0	0	508	
13	0	0	0	0	508	
14	0	0	0	0	509	
15	0	0	0	0	508	
0	0	0	0	0	508	
1	0	0	0	0	508	
2	0	0	0	0	508	
3	0	0	0	0	508	
4	0	0	0	0	508	
5	0	0	0	0	508	
6	0	0	0	0	508	
7	0	0	0	0	508	
8	0	0	0	0	508	
9	0	0	0	0	508	
10	0	0	0	0	508	
11	0	0	0	0	508	
12	0	0	0	0	508	
13	0	0	0	0	508	
14	0	0	0	0	509	
15	0	0	0	0	508	
0	0	0	0	0	508	
1	0	0	0	0	508	
2	0	0	0	0	508	
3	0	0	0	0	508	
4	0	0	0	0	507	
5	0	0	0	0	508	
6	0	0	0	0	508	
7	0	0	0	0	505	
8	0	0	0	0	502	
9	0	0	0	0	507	
10	0	0	0	0	513	
11	0	0	0	0	517	
12	0	0	0	0	504	
13	0	0	0	0	505	
14	0	0	0	0	512	
15	0	0	0	0	510	
0	0	0	0	0	1022	
1	0	0	0	0	0	
2	0	0	0	0	273	
3	0	0	0	0	464	
4	0	0	0	0	499	
5	0	0	0	0	505	
6	0	0	0	0	507	
7	0	0	0	0	508	
8	0	0	0	0	508	
9	0	0	0	0	507	
10	0	0	0	0	508	
11	0	0	0	0	508	
12	0	0	0	0	508	
13	0	0	0	0	508	
14	0	0	0	0	508	
15	0	0	0	0	508	
0	0	0	0	0	508	
1	0	0	0	0	508	
2	0	0	0	0	508	
3	0	0	0	0	508	
4	0	0	0	0	508	
5	0	0	0	0	507	
6	0	0	0	0	508	
7	0	0	0	0	509	
8	0	0	0	0	508	