# OpenSignals Text File Format. Version 1
# {"84:BA:20:5E:FF:7F": {"position": 0, "device": "bitalino_rev", "device name": "84:BA:20:5E:FF:7F", "device connection": "BTH84:BA:20:5E:FF:7F", "sampling rate": 100, "resolution": [4, 1, 1, 1, 1, 10], "firmware version": 1282, "comments": "", "keywords": "", "mode": 0, "sync interval": 2, "date": "2024-3-6", "time": "18:51:36.613", "channels": [1], "sensor": ["EMGBITREV"], "label": ["A1"], "column": ["nSeq", "I1", "I2", "O1", "O2", "A1"], "special": [{}], "digital IO": [0, 0, 1, 1]}}
# EndOfHeader
0	0	0	0	0	480	
1	0	0	0	0	542	
2	0	0	0	0	479	
3	0	0	0	0	543	
4	0	0	0	0	480	
5	0	0	0	0	544	
6	0	0	0	0	479	
7	0	0	0	0	541	
8	0	0	0	0	482	
9	0	0	0	0	539	
10	0	0	0	0	477	
11	0	0	0	0	542	
12	0	0	0	0	480	
13	0	0	0	0	542	
14	0	0	0	0	478	
15	0	0	0	0	542	
0	0	0	0	0	479	
1	0	0	0	0	541	
2	0	0	0	0	479	
3	0	0	0	0	542
0	0	0	0	0	485
1	0	0	0	0	490
2	0	0	0	0	495
3	0	0	0	0	378
4	0	0	0	0	450
5	0	0	0	0	455
6	0	0	0	0	460
7	0	0	0	0	465
8	0	0	0	0	244
9	0	0	0	0	450
10	0	0	0	0	455
11	0	0	0	0	460
12	0	0	0	0	465
13	0	0	0	0	470
14	0	0	0	0	475
15	0	0	0	0	180
16	0	0	0	0	450
17	0	0	0	0	455
18	0	0	0	0	460
19	0	0	0	0	465
20	0	0	0	0	296
21	0	0	0	0	450
22	0	0	0	0	455
23	0	0	0	0	460
24	0	0	0	0	465
25	0	0	0	0	470
26	0	0	0	0	475
27	0	0	0	0	480
28	0	0	0	0	485
29	0	0	0	0	490
30	0	0	0	0	495
31	0	0	0	0	500
32	0	0	0	0	483
33	0	0	0	0	488
34	0	0	0	0	493
35	0	0	0	0	498
36	0	0	0	0	503
37	0	0	0	0	508
38	0	0	0	0	513
39	0	0	0	0	518
40	0	0	0	0	523
41	0	0	0	0	528
42	0	0	0	0	533
43	0	0	0	0	538
44	0	0	0	0	543
45	0	0	0	0	548
46	0	0	0	0	553
47	0	0	0	0	558
48	0	0	0	0	563
49	0	0	0	0	568
50	0	0	0	0	573
51	0	0	0	0	575
52	0	0	0	0	575
53	0	0	0	0	575
54	0	0	0	0	575
55	0	0	0	0	575
56	0	0	0	0	562
57	0	0	0	0	567
58	0	0	0	0	572
59	0	0	0	0	575
60	0	0	0	0	575
61	0	0	0	0	575
62	0	0	0	0	575
63	0	0	0	0	575
64	0	0	0	0	575
65	0	0	0	0	575
66	0	0	0	0	575
67	0	0	0	0	575
68	0	0	0	0	575
69	0	0	0	0	575
70	0	0	0	0	575
71	0	0	0	0	575
72	0	0	0	0	575
73	0	0	0	0	575
74	0	0	0	0	575
75	0	0	0	0	575
76	0	0	0	0	575
77	0	0	0	0	475
78	0	0	0	0	480
79	0	0	0	0	485
80	0	0	0	0	490
81	0	0	0	0	495
82	0	0	0	0	500
83	0	0	0	0	505
84	0	0	0	0	510
85	0	0	0	0	515
86	0	0	0	0	520
87	0	0	0	0	525
88	0	0	0	0	236
89	0	0	0	0	450
90	0	0	0	0	455
91	0	0	0	0	460
92	0	0	0	0	465
93	0	0	0	0	470
94	0	0	0	0	475
95	0	0	0	0	480
96	0	0	0	0	485
97	0	0	0	0	490
98	0	0	0	0	495
99	0	0	0	0	500
100	0	0	0	0	495
101	0	0	0	0	490
102	0	0	0	0	485
103	0	0	0	0	480
104	0	0	0	0	475
105	0	0	0	0	470
106	0	0	0	0	465
107	0	0	0	0	460
108	0	0	0	0	455
109	0	0	0	0	450
110	0	0	0	0	450
111	0	0	0	0	450
112	0	0	0	0	450
113	0	0	0	0	450
114	0	0	0	0	450
115	0	0	0	0	450
116	0	0	0	0	450
117	0	0	0	0	450
118	0	0	0	0	450
119	0	0	0	0	450
120	0	0	0	0	450
121	0	0	0	0	450
122	0	0	0	0	450
123	0	0	0	0	450
124	0	0	0	0	450
125	0	0	0	0	450
126	0	0	0	0	450
127	0	0	0	0	450
128	0	0	0	0	450
129	0	0	0	0	450
130	0	0	0	0	450
131	0	0	0	0	450
132	0	0	0	0	450
133	0	0	0	0	450
134	0	0	0	0	450
135	0	0	0	0	450
136	0	0	0	0	450
137	0	0	0	0	450
138	0	0	0	0	450
139	0	0	0	0	450
140	0	0	0	0	450
141	0	0	0	0	450
142	0	0	0	0	450
143	0	0	0	0	450
144	0	0	0	0	450
145	0	0	0	0	450
146	0	0	0	0	450
147	0	0	0	0	450
148	0	0	0	0	450
149	0	0	0	0	247
150	0	0	0	0	450
151	0	0	0	0	450
152	0	0	0	0	450
153	0	0	0	0	450
154	0	0	0	0	450
155	0	0	0	0	450
156	0	0	0	0	450
157	0	0	0	0	450
158	0	0	0	0	760
159	0	0	0	0	575
160	0	0	0	0	570
161	0	0	0	0	291
162	0	0	0	0	450
163	0	0	0	0	450
164	0	0	0	0	561
165	0	0	0	0	556
166	0	0	0	0	551
167	0	0	0	0	546
168	0	0	0	0	541
169	0	0	0	0	536
170	0	0	0	0	531
171	0	0	0	0	526
172	0	0	0	0	521
173	0	0	0	0	516
174	0	0	0	0	511
175	0	0	0	0	215
176	0	0	0	0	450
177	0	0	0	0	450
178	0	0	0	0	450
179	0	0	0	0	450
180	0	0	0	0	450
181	0	0	0	0	450
182	0	0	0	0	450
183	0	0	0	0	450
184	0	0	0	0	794
185	0	0	0	0	575
186	0	0	0	0	570
187	0	0	0	0	565
188	0	0	0	0	560
189	0	0	0	0	555
190	0	0	0	0	550
191	0	0	0	0	545
192	0	0	0	0	540
193	0	0	0	0	535
194	0	0	0	0	530
195	0	0	0	0	525
196	0	0	0	0	520
197	0	0	0	0	515
198	0	0	0	0	510
199	0	0	0	0	505
200	0	0	0	0	500
201	0	0	0	0	495
202	0	0	0	0	490
203	0	0	0	0	485
204	0	0	0	0	480
205	0	0	0	0	475
206	0	0	0	0	470
207	0	0	0	0	465
208	0	0	0	0	460
209	0	0	0	0	455
210	0	0	0	0	450
211	0	0	0	0	450
212	0	0	0	0	450
213	0	0	0	0	450
214	0	0	0	0	450
215	0	0	0	0	450
216	0	0	0	0	450
217	0	0	0	0	450
218	0	0	0	0	450
219	0	0	0	0	450
220	0	0	0	0	450
221	0	0	0	0	450
222	0	0	0	0	450
223	0	0	0	0	450
224	0	0	0	0	450
225	0	0	0	0	450
226	0	0	0	0	781
227	0	0	0	0	575
228	0	0	0	0	570
229	0	0	0	0	565
230	0	0	0	0	560
231	0	0	0	0	555
232	0	0	0	0	550
233	0	0	0	0	545
234	0	0	0	0	540
235	0	0	0	0	535
236	0	0	0	0	530
237	0	0	0	0	525
238	0	0	0	0	520
239	0	0	0	0	515
240	0	0	0	0	510
241	0	0	0	0	505
242	0	0	0	0	500
243	0	0	0	0	495
244	0	0	0	0	490
245	0	0	0	0	485
246	0	0	0	0	480
247	0	0	0	0	475
248	0	0	0	0	470
249	0	0	0	0	465
250	0	0	0	0	460
251	0	0	0	0	455
252	0	0	0	0	450
253	0	0	0	0	450
254	0	0	0	0	450
255	0	0	0	0	450
256	0	0	0	0	450
257	0	0	0	0	132
258	0	0	0	0	450
259	0	0	0	0	450
260	0	0	0	0	450
261	0	0	0	0	450
262	0	0	0	0	450
263	0	0	0	0	111
264	0	0	0	0	450
265	0	0	0	0	450
266	0	0	0	0	450
267	0	0	0	0	450
268	0	0	0	0	450
269	0	0	0	0	450
270	0	0	0	0	450
271	0	0	0	0	450
272	0	0	0	0	450
273	0	0	0	0	450
274	0	0	0	0	450
275	0	0	0	0	450
276	0	0	0	0	450
277	0	0	0	0	450
278	0	0	0	0	450
279	0	0	0	0	450
280	0	0	0	0	450
281	0	0	0	0	450
282	0	0	0	0	450
283	0	0	0	0	450
284	0	0	0	0	450
285	0	0	0	0	450
286	0	0	0	0	450
287	0	0	0	0	450
288	0	0	0	0	450
289	0	0	0	0	450
290	0	0	0	0	450
291	0	0	0	0	450
292	0	0	0	0	450
293	0	0	0	0	450
294	0	0	0	0	450
295	0	0	0	0	450
296	0	0	0	0	450
297	0	0	0	0	450
298	0	0	0	0	450
299	0	0	0	0	450
300	0	0	0	0	455
301	0	0	0	0	460
302	0	0	0	0	465
303	0	0	0	0	470
304	0	0	0	0	475
305	0	0	0	0	480
306	0	0	0	0	485
307	0	0	0	0	490
308	0	0	0	0	495
309	0	0	0	0	500
310	0	0	0	0	505
311	0	0	0	0	510
312	0	0	0	0	515
313	0	0	0	0	520
314	0	0	0	0	525
315	0	0	0	0	530
316	0	0	0	0	535
317	0	0	0	0	540
318	0	0	0	0	545
319	0	0	0	0	550
320	0	0	0	0	555
321	0	0	0	0	560
322	0	0	0	0	565
323	0	0	0	0	570
324	0	0	0	0	575
325	0	0	0	0	575
326	0	0	0	0	575
327	0	0	0	0	575
328	0	0	0	0	575
329	0	0	0	0	575
330	0	0	0	0	575
331	0	0	0	0	575
332	0	0	0	0	575
333	0	0	0	0	575
334	0	0	0	0	575
335	0	0	0	0	575
336	0	0	0	0	575
337	0	0	0	0	575
338	0	0	0	0	575
339	0	0	0	0	575
340	0	0	0	0	575
341	0	0	0	0	575
342	0	0	0	0	575
343	0	0	0	0	575
344	0	0	0	0	575
345	0	0	0	0	575
346	0	0	0	0	575
347	0	0	0	0	575
348	0	0	0	0	127
349	0	0	0	0	450
350	0	0	0	0	667
351	0	0	0	0	575
352	0	0	0	0	575
353	0	0	0	0	575
354	0	0	0	0	575
355	0	0	0	0	288
356	0	0	0	0	450
357	0	0	0	0	455
358	0	0	0	0	460
359	0	0	0	0	465
360	0	0	0	0	470
361	0	0	0	0	475
362	0	0	0	0	480
363	0	0	0	0	485
364	0	0	0	0	490
365	0	0	0	0	495
366	0	0	0	0	500
367	0	0	0	0	505
368	0	0	0	0	510
369	0	0	0	0	515
370	0	0	0	0	520
371	0	0	0	0	525
372	0	0	0	0	530
373	0	0	0	0	535
374	0	0	0	0	540
375	0	0	0	0	545
376	0	0	0	0	550
377	0	0	0	0	555
378	0	0	0	0	560
379	0	0	0	0	565
380	0	0	0	0	570
381	0	0	0	0	575
382	0	0	0	0	575
383	0	0	0	0	653
384	0	0	0	0	575
385	0	0	0	0	575
386	0	0	0	0	575
387	0	0	0	0	575
388	0	0	0	0	575
389	0	0	0	0	575
390	0	0	0	0	575
391	0	0	0	0	575
392	0	0	0	0	575
393	0	0	0	0	575
394	0	0	0	0	575
395	0	0	0	0	575
396	0	0	0	0	575
397	0	0	0	0	575
398	0	0	0	0	575
399	0	0	0	0	575
400	0	0	0	0	570
401	0	0	0	0	565
402	0	0	0	0	560
403	0	0	0	0	555
404	0	0	0	0	550
405	0	0	0	0	545
406	0	0	0	0	540
407	0	0	0	0	535
408	0	0	0	0	572
409	0	0	0	0	567
410	0	0	0	0	562
411	0	0	0	0	557
412	0	0	0	0	504
413	0	0	0	0	499
414	0	0	0	0	494
415	0	0	0	0	489
416	0	0	0	0	484
417	0	0	0	0	479
418	0	0	0	0	474
419	0	0	0	0	469
420	0	0	0	0	464
421	0	0	0	0	459
422	0	0	0	0	454
423	0	0	0	0	450
424	0	0	0	0	450
425	0	0	0	0	450
426	0	0	0	0	450
427	0	0	0	0	450
428	0	0	0	0	450
429	0	0	0	0	450
430	0	0	0	0	450
431	0	0	0	0	450
432	0	0	0	0	450
433	0	0	0	0	450
434	0	0	0	0	450
435	0	0	0	0	450
436	0	0	0	0	450
437	0	0	0	0	450
438	0	0	0	0	450
439	0	0	0	0	642
440	0	0	0	0	575
441	0	0	0	0	570
442	0	0	0	0	565
443	0	0	0	0	560
444	0	0	0	0	555
445	0	0	0	0	550
446	0	0	0	0	545
447	0	0	0	0	540
448	0	0	0	0	535
449	0	0	0	0	530
450	0	0	0	0	525
451	0	0	0	0	520
452	0	0	0	0	515
453	0	0	0	0	510
454	0	0	0	0	505
455	0	0	0	0	500
456	0	0	0	0	495
457	0	0	0	0	490
458	0	0	0	0	485
459	0	0	0	0	480
460	0	0	0	0	475
461	0	0	0	0	294
462	0	0	0	0	133
463	0	0	0	0	450
464	0	0	0	0	450
465	0	0	0	0	450
466	0	0	0	0	450
467	0	0	0	0	450
468	0	0	0	0	450
469	0	0	0	0	450
470	0	0	0	0	450
471	0	0	0	0	450
472	0	0	0	0	450
473	0	0	0	0	199
474	0	0	0	0	450
475	0	0	0	0	450
476	0	0	0	0	450
477	0	0	0	0	450
478	0	0	0	0	450
479	0	0	0	0	450
480	0	0	0	0	450
481	0	0	0	0	450
482	0	0	0	0	450
483	0	0	0	0	450
484	0	0	0	0	450
485	0	0	0	0	450
486	0	0	0	0	260
487	0	0	0	0	450
488	0	0	0	0	450
489	0	0	0	0	450
490	0	0	0	0	450
491	0	0	0	0	450
492	0	0	0	0	450
493	0	0	0	0	450
494	0	0	0	0	450
495	0	0	0	0	450
496	0	0	0	0	450
497	0	0	0	0	450
498	0	0	0	0	450
499	0	0	0	0	450
500	0	0	0	0	450
501	0	0	0	0	450
502	0	0	0	0	450
503	0	0	0	0	450
504	0	0	0	0	450
505	0	0	0	0	450
506	0	0	0	0	450
507	0	0	0	0	450
508	0	0	0	0	450
509	0	0	0	0	450
510	0	0	0	0	450
511	0	0	0	0	450
512	0	0	0	0	450
513	0	0	0	0	450
514	0	0	0	0	450
515	0	0	0	0	450
516	0	0	0	0	450
517	0	0	0	0	450
518	0	0	0	0	450
519	0	0	0	0	450
520	0	0	0	0	450
521	0	0	0	0	450
522	0	0	0	0	450
523	0	0	0	0	450
524	0	0	0	0	450
525	0	0	0	0	450
526	0	0	0	0	450
527	0	0	0	0	450
528	0	0	0	0	450
529	0	0	0	0	450
530	0	0	0	0	450
531	0	0	0	0	450
532	0	0	0	0	450
533	0	0	0	0	450
534	0	0	0	0	450
535	0	0	0	0	450
536	0	0	0	0	450
537	0	0	0	0	450
538	0	0	0	0	450
539	0	0	0	0	450
540	0	0	0	0	450
541	0	0	0	0	450
542	0	0	0	0	450
543	0	0	0	0	450
544	0	0	0	0	450
545	0	0	0	0	450
546	0	0	0	0	450
547	0	0	0	0	450
548	0	0	0	0	450
549	0	0	0	0	450
550	0	0	0	0	450
551	0	0	0	0	450
552	0	0	0	0	450
553	0	0	0	0	450
554	0	0	0	0	450
555	0	0	0	0	450
556	0	0	0	0	450
557	0	0	0	0	450
558	0	0	0	0	450
559	0	0	0	0	450
560	0	0	0	0	450
561	0	0	0	0	450
562	0	0	0	0	450
563	0	0	0	0	450
564	0	0	0	0	450
565	0	0	0	0	450
566	0	0	0	0	450
567	0	0	0	0	450
568	0	0	0	0	130
569	0	0	0	0	450
570	0	0	0	0	450
571	0	0	0	0	450
572	0	0	0	0	450
573	0	0	0	0	450
574	0	0	0	0	450
575	0	0	0	0	450
576	0	0	0	0	450
577	0	0	0	0	450
578	0	0	0	0	450
579	0	0	0	0	450
580	0	0	0	0	450
581	0	0	0	0	450
582	0	0	0	0	450
583	0	0	0	0	502
584	0	0	0	0	497
585	0	0	0	0	492
586	0	0	0	0	749
587	0	0	0	0	575
588	0	0	0	0	570
589	0	0	0	0	565
590	0	0	0	0	560
591	0	0	0	0	555
592	0	0	0	0	550
593	0	0	0	0	545
594	0	0	0	0	540
595	0	0	0	0	535
596	0	0	0	0	530
597	0	0	0	0	525
598	0	0	0	0	520
599	0	0	0	0	515
600	0	0	0	0	510
601	0	0	0	0	505
602	0	0	0	0	500
603	0	0	0	0	495
604	0	0	0	0	490
605	0	0	0	0	138
606	0	0	0	0	450
607	0	0	0	0	450
608	0	0	0	0	450
609	0	0	0	0	122
610	0	0	0	0	450
611	0	0	0	0	450
612	0	0	0	0	127
613	0	0	0	0	450
614	0	0	0	0	450
615	0	0	0	0	450
616	0	0	0	0	450
617	0	0	0	0	450
618	0	0	0	0	450
619	0	0	0	0	450
620	0	0	0	0	450
621	0	0	0	0	450
622	0	0	0	0	450
623	0	0	0	0	450
624	0	0	0	0	450
625	0	0	0	0	450
626	0	0	0	0	450
627	0	0	0	0	450
628	0	0	0	0	450
629	0	0	0	0	450
630	0	0	0	0	450
631	0	0	0	0	450
632	0	0	0	0	450
633	0	0	0	0	450
634	0	0	0	0	450
635	0	0	0	0	450
636	0	0	0	0	450
637	0	0	0	0	450
638	0	0	0	0	211
639	0	0	0	0	450
640	0	0	0	0	450
641	0	0	0	0	450
642	0	0	0	0	450
643	0	0	0	0	450
644	0	0	0	0	450
645	0	0	0	0	450
646	0	0	0	0	450
647	0	0	0	0	450
648	0	0	0	0	450
649	0	0	0	0	450
650	0	0	0	0	450
651	0	0	0	0	450
652	0	0	0	0	450
653	0	0	0	0	450
654	0	0	0	0	450
655	0	0	0	0	450
656	0	0	0	0	450
657	0	0	0	0	450
658	0	0	0	0	450
659	0	0	0	0	665
660	0	0	0	0	575
661	0	0	0	0	570
662	0	0	0	0	434
663	0	0	0	0	450
664	0	0	0	0	450
665	0	0	0	0	167
666	0	0	0	0	450
667	0	0	0	0	450
668	0	0	0	0	450
669	0	0	0	0	450
670	0	0	0	0	450
671	0	0	0	0	450
672	0	0	0	0	450
673	0	0	0	0	450
674	0	0	0	0	450
675	0	0	0	0	450
676	0	0	0	0	450
677	0	0	0	0	450
678	0	0	0	0	450
679	0	0	0	0	450
680	0	0	0	0	450
681	0	0	0	0	450
682	0	0	0	0	450
683	0	0	0	0	450
684	0	0	0	0	450
685	0	0	0	0	450
686	0	0	0	0	450
687	0	0	0	0	450
688	0	0	0	0	450
689	0	0	0	0	450
690	0	0	0	0	450
691	0	0	0	0	450
692	0	0	0	0	450
693	0	0	0	0	450
694	0	0	0	0	450
695	0	0	0	0	450
696	0	0	0	0	450
697	0	0	0	0	450
698	0	0	0	0	450
699	0	0	0	0	450
700	0	0	0	0	455
701	0	0	0	0	460
702	0	0	0	0	465
703	0	0	0	0	470
704	0	0	0	0	475
705	0	0	0	0	480
706	0	0	0	0	485
707	0	0	0	0	490
708	0	0	0	0	495
709	0	0	0	0	500
710	0	0	0	0	505
711	0	0	0	0	510
712	0	0	0	0	234
713	0	0	0	0	450
714	0	0	0	0	455
715	0	0	0	0	460
716	0	0	0	0	465
717	0	0	0	0	470
718	0	0	0	0	475
719	0	0	0	0	480
720	0	0	0	0	485
721	0	0	0	0	490
722	0	0	0	0	495
723	0	0	0	0	500
724	0	0	0	0	505
725	0	0	0	0	510
726	0	0	0	0	515
727	0	0	0	0	520
728	0	0	0	0	525
729	0	0	0	0	530
730	0	0	0	0	535
731	0	0	0	0	540
732	0	0	0	0	545
733	0	0	0	0	550
734	0	0	0	0	555
735	0	0	0	0	560
736	0	0	0	0	565
737	0	0	0	0	570
738	0	0	0	0	575
739	0	0	0	0	575
740	0	0	0	0	575
741	0	0	0	0	575
742	0	0	0	0	575
743	0	0	0	0	575
744	0	0	0	0	575
745	0	0	0	0	575
746	0	0	0	0	575
747	0	0	0	0	575
748	0	0	0	0	575
749	0	0	0	0	575
750	0	0	0	0	575
751	0	0	0	0	575
752	0	0	0	0	575
753	0	0	0	0	575
754	0	0	0	0	575
755	0	0	0	0	575
756	0	0	0	0	575
757	0	0	0	0	575
758	0	0	0	0	575
759	0	0	0	0	575
760	0	0	0	0	575
761	0	0	0	0	575
762	0	0	0	0	575
763	0	0	0	0	575
764	0	0	0	0	575
765	0	0	0	0	575
766	0	0	0	0	575
767	0	0	0	0	575
768	0	0	0	0	575
769	0	0	0	0	575
770	0	0	0	0	575
771	0	0	0	0	575
772	0	0	0	0	575
773	0	0	0	0	575
774	0	0	0	0	575
775	0	0	0	0	575
776	0	0	0	0	575
777	0	0	0	0	575
778	0	0	0	0	575
779	0	0	0	0	575
780	0	0	0	0	575
781	0	0	0	0	465
782	0	0	0	0	470
783	0	0	0	0	475
784	0	0	0	0	480
785	0	0	0	0	485
786	0	0	0	0	490
787	0	0	0	0	495
788	0	0	0	0	500
789	0	0	0	0	505
790	0	0	0	0	510
791	0	0	0	0	515
792	0	0	0	0	520
793	0	0	0	0	525
794	0	0	0	0	530
795	0	0	0	0	535
796	0	0	0	0	540
797	0	0	0	0	545
798	0	0	0	0	550
799	0	0	0	0	555
800	0	0	0	0	560
801	0	0	0	0	565
802	0	0	0	0	570
803	0	0	0	0	575
804	0	0	0	0	183
805	0	0	0	0	450
806	0	0	0	0	455
807	0	0	0	0	460
808	0	0	0	0	465
809	0	0	0	0	470
810	0	0	0	0	475
811	0	0	0	0	480
812	0	0	0	0	485
813	0	0	0	0	490
814	0	0	0	0	495
815	0	0	0	0	500
816	0	0	0	0	505
817	0	0	0	0	510
818	0	0	0	0	515
819	0	0	0	0	520
820	0	0	0	0	525
821	0	0	0	0	530
822	0	0	0	0	535
823	0	0	0	0	540
824	0	0	0	0	545
825	0	0	0	0	550
826	0	0	0	0	555
827	0	0	0	0	560
828	0	0	0	0	565
829	0	0	0	0	570
830	0	0	0	0	575
831	0	0	0	0	575
832	0	0	0	0	575
833	0	0	0	0	575
834	0	0	0	0	575
835	0	0	0	0	690
836	0	0	0	0	575
837	0	0	0	0	575
838	0	0	0	0	575
839	0	0	0	0	575
840	0	0	0	0	575
841	0	0	0	0	575
842	0	0	0	0	575
843	0	0	0	0	575
844	0	0	0	0	575
845	0	0	0	0	575
846	0	0	0	0	575
847	0	0	0	0	575
848	0	0	0	0	575
849	0	0	0	0	575
850	0	0	0	0	575
851	0	0	0	0	575
852	0	0	0	0	575
853	0	0	0	0	575
854	0	0	0	0	575
855	0	0	0	0	575
856	0	0	0	0	575
857	0	0	0	0	616
858	0	0	0	0	575
859	0	0	0	0	575
860	0	0	0	0	575
861	0	0	0	0	170
862	0	0	0	0	450
863	0	0	0	0	455
864	0	0	0	0	460
865	0	0	0	0	465
866	0	0	0	0	470
867	0	0	0	0	475
868	0	0	0	0	480
869	0	0	0	0	485
870	0	0	0	0	490
871	0	0	0	0	495
872	0	0	0	0	500
873	0	0	0	0	468
874	0	0	0	0	473
875	0	0	0	0	478
876	0	0	0	0	483
877	0	0	0	0	488
878	0	0	0	0	493
879	0	0	0	0	498
880	0	0	0	0	503
881	0	0	0	0	508
882	0	0	0	0	513
883	0	0	0	0	518
884	0	0	0	0	523
885	0	0	0	0	528
886	0	0	0	0	533
887	0	0	0	0	538
888	0	0	0	0	543
889	0	0	0	0	548
890	0	0	0	0	553
891	0	0	0	0	558
892	0	0	0	0	563
893	0	0	0	0	568
894	0	0	0	0	573
895	0	0	0	0	575
896	0	0	0	0	575
897	0	0	0	0	575
898	0	0	0	0	575
899	0	0	0	0	127
900	0	0	0	0	450
901	0	0	0	0	455
902	0	0	0	0	460
903	0	0	0	0	465
904	0	0	0	0	470
905	0	0	0	0	475
906	0	0	0	0	480
907	0	0	0	0	485
908	0	0	0	0	490
909	0	0	0	0	273
910	0	0	0	0	450
911	0	0	0	0	455
912	0	0	0	0	460
913	0	0	0	0	465
914	0	0	0	0	470
915	0	0	0	0	475
916	0	0	0	0	480
917	0	0	0	0	485
918	0	0	0	0	490
919	0	0	0	0	495
920	0	0	0	0	500
921	0	0	0	0	505
922	0	0	0	0	510
923	0	0	0	0	515
924	0	0	0	0	714
925	0	0	0	0	575
926	0	0	0	0	575
927	0	0	0	0	575
928	0	0	0	0	575
929	0	0	0	0	575
930	0	0	0	0	575
931	0	0	0	0	575
932	0	0	0	0	575
933	0	0	0	0	575
934	0	0	0	0	575
935	0	0	0	0	337
936	0	0	0	0	450
937	0	0	0	0	455
938	0	0	0	0	460
939	0	0	0	0	465
940	0	0	0	0	470
941	0	0	0	0	475
942	0	0	0	0	480
943	0	0	0	0	485
944	0	0	0	0	490
945	0	0	0	0	495
946	0	0	0	0	500
947	0	0	0	0	505
948	0	0	0	0	450
949	0	0	0	0	455
950	0	0	0	0	460
951	0	0	0	0	525
952	0	0	0	0	530
953	0	0	0	0	519
954	0	0	0	0	524
955	0	0	0	0	529
956	0	0	0	0	534
957	0	0	0	0	539
958	0	0	0	0	544
959	0	0	0	0	549
960	0	0	0	0	554
961	0	0	0	0	559
962	0	0	0	0	564
963	0	0	0	0	569
964	0	0	0	0	574
965	0	0	0	0	575
966	0	0	0	0	614
967	0	0	0	0	575
968	0	0	0	0	575
969	0	0	0	0	575
970	0	0	0	0	575
971	0	0	0	0	575
972	0	0	0	0	575
973	0	0	0	0	575
974	0	0	0	0	575
975	0	0	0	0	575
976	0	0	0	0	575
977	0	0	0	0	575
978	0	0	0	0	575
979	0	0	0	0	575
980	0	0	0	0	575
981	0	0	0	0	575
982	0	0	0	0	575
983	0	0	0	0	575
984	0	0	0	0	575
985	0	0	0	0	575
986	0	0	0	0	575
987	0	0	0	0	575
988	0	0	0	0	575
989	0	0	0	0	575
990	0	0	0	0	575
991	0	0	0	0	575
992	0	0	0	0	575
993	0	0	0	0	575
994	0	0	0	0	575
995	0	0	0	0	575
996	0	0	0	0	575
997	0	0	0	0	575
998	0	0	0	0	575
999	0	0	0	0	575
1000	0	0	0	0	570
1001	0	0	0	0	565
1002	0	0	0	0	560
1003	0	0	0	0	555
1004	0	0	0	0	550
1005	0	0	0	0	545
1006	0	0	0	0	540
1007	0	0	0	0	535
1008	0	0	0	0	530
1009	0	0	0	0	525
1010	0	0	0	0	520
1011	0	0	0	0	515
1012	0	0	0	0	510
1013	0	0	0	0	505
1014	0	0	0	0	500
1015	0	0	0	0	495
1016	0	0	0	0	490
1017	0	0	0	0	485
1018	0	0	0	0	480
1019	0	0	0	0	475
1020	0	0	0	0	470
1021	0	0	0	0	465
1022	0	0	0	0	460
1023	0	0	0	0	455
1024	0	0	0	0	450
1025	0	0	0	0	450
1026	0	0	0	0	450
1027	0	0	0	0	450
1028	0	0	0	0	450
1029	0	0	0	0	254
1030	0	0	0	0	674
1031	0	0	0	0	575
1032	0	0	0	0	570
1033	0	0	0	0	565
1034	0	0	0	0	560
1035	0	0	0	0	555
1036	0	0	0	0	375
1037	0	0	0	0	450
1038	0	0	0	0	450
1039	0	0	0	0	450
1040	0	0	0	0	450
1041	0	0	0	0	415
1042	0	0	0	0	450
1043	0	0	0	0	450
1044	0	0	0	0	450
1045	0	0	0	0	450
1046	0	0	0	0	450
1047	0	0	0	0	450
1048	0	0	0	0	450
1049	0	0	0	0	450
1050	0	0	0	0	450
1051	0	0	0	0	450
1052	0	0	0	0	450
1053	0	0	0	0	450
1054	0	0	0	0	450
1055	0	0	0	0	726
1056	0	0	0	0	575
1057	0	0	0	0	570
1058	0	0	0	0	498
1059	0	0	0	0	493
1060	0	0	0	0	488
1061	0	0	0	0	483
1062	0	0	0	0	478
1063	0	0	0	0	473
1064	0	0	0	0	468
1065	0	0	0	0	463
1066	0	0	0	0	458
1067	0	0	0	0	453
1068	0	0	0	0	450
1069	0	0	0	0	450
1070	0	0	0	0	450
1071	0	0	0	0	450
1072	0	0	0	0	450
1073	0	0	0	0	450
1074	0	0	0	0	450
1075	0	0	0	0	450
1076	0	0	0	0	450
1077	0	0	0	0	559
1078	0	0	0	0	554
1079	0	0	0	0	549
1080	0	0	0	0	544
1081	0	0	0	0	539
1082	0	0	0	0	534
1083	0	0	0	0	529
1084	0	0	0	0	524
1085	0	0	0	0	519
1086	0	0	0	0	514
1087	0	0	0	0	509
1088	0	0	0	0	504
1089	0	0	0	0	499
1090	0	0	0	0	494
1091	0	0	0	0	489
1092	0	0	0	0	484
1093	0	0	0	0	479
1094	0	0	0	0	474
1095	0	0	0	0	469
1096	0	0	0	0	464
1097	0	0	0	0	459
1098	0	0	0	0	454
1099	0	0	0	0	450
1100	0	0	0	0	450
1101	0	0	0	0	450
1102	0	0	0	0	450
1103	0	0	0	0	450
1104	0	0	0	0	790
1105	0	0	0	0	575
1106	0	0	0	0	570
1107	0	0	0	0	565
1108	0	0	0	0	560
1109	0	0	0	0	555
1110	0	0	0	0	550
1111	0	0	0	0	545
1112	0	0	0	0	540
1113	0	0	0	0	535
1114	0	0	0	0	530
1115	0	0	0	0	525
1116	0	0	0	0	520
1117	0	0	0	0	149
1118	0	0	0	0	450
1119	0	0	0	0	450
1120	0	0	0	0	450
1121	0	0	0	0	450
1122	0	0	0	0	450
1123	0	0	0	0	450
1124	0	0	0	0	450
1125	0	0	0	0	450
1126	0	0	0	0	450
1127	0	0	0	0	450
1128	0	0	0	0	450
1129	0	0	0	0	450
1130	0	0	0	0	450
1131	0	0	0	0	450
1132	0	0	0	0	450
1133	0	0	0	0	450
1134	0	0	0	0	450
1135	0	0	0	0	450
1136	0	0	0	0	450
1137	0	0	0	0	450
1138	0	0	0	0	450
1139	0	0	0	0	450
1140	0	0	0	0	450
1141	0	0	0	0	450
1142	0	0	0	0	543
1143	0	0	0	0	127
1144	0	0	0	0	450
1145	0	0	0	0	450
1146	0	0	0	0	450
1147	0	0	0	0	450
1148	0	0	0	0	450
1149	0	0	0	0	450
1150	0	0	0	0	587
1151	0	0	0	0	575
1152	0	0	0	0	570
1153	0	0	0	0	565
1154	0	0	0	0	560
1155	0	0	0	0	555
1156	0	0	0	0	550
1157	0	0	0	0	545
1158	0	0	0	0	540
1159	0	0	0	0	535
1160	0	0	0	0	530
1161	0	0	0	0	525
1162	0	0	0	0	520
1163	0	0	0	0	515
1164	0	0	0	0	510
1165	0	0	0	0	505
1166	0	0	0	0	500
1167	0	0	0	0	495
1168	0	0	0	0	490
1169	0	0	0	0	485
1170	0	0	0	0	480
1171	0	0	0	0	475
1172	0	0	0	0	470
1173	0	0	0	0	465
1174	0	0	0	0	460
1175	0	0	0	0	455
1176	0	0	0	0	450
1177	0	0	0	0	324
1178	0	0	0	0	450
1179	0	0	0	0	450
1180	0	0	0	0	450
1181	0	0	0	0	450
1182	0	0	0	0	450
1183	0	0	0	0	450
1184	0	0	0	0	450
1185	0	0	0	0	450
1186	0	0	0	0	450
1187	0	0	0	0	450
1188	0	0	0	0	450
1189	0	0	0	0	450
1190	0	0	0	0	450
1191	0	0	0	0	450
1192	0	0	0	0	450
1193	0	0	0	0	450
1194	0	0	0	0	450
1195	0	0	0	0	450
1196	0	0	0	0	450
1197	0	0	0	0	450
1198	0	0	0	0	450
1199	0	0	0	0	494
1200	0	0	0	0	489
1201	0	0	0	0	484
1202	0	0	0	0	479
1203	0	0	0	0	474
1204	0	0	0	0	469
1205	0	0	0	0	464
1206	0	0	0	0	459
1207	0	0	0	0	454
1208	0	0	0	0	450
1209	0	0	0	0	450
1210	0	0	0	0	450
1211	0	0	0	0	450
1212	0	0	0	0	450
1213	0	0	0	0	450
1214	0	0	0	0	450
1215	0	0	0	0	450
1216	0	0	0	0	752
1217	0	0	0	0	575
1218	0	0	0	0	570
1219	0	0	0	0	565
1220	0	0	0	0	560
1221	0	0	0	0	555
1222	0	0	0	0	550
1223	0	0	0	0	545
1224	0	0	0	0	540
1225	0	0	0	0	535
1226	0	0	0	0	530
1227	0	0	0	0	525
1228	0	0	0	0	520
1229	0	0	0	0	515
1230	0	0	0	0	510
1231	0	0	0	0	505
1232	0	0	0	0	500
1233	0	0	0	0	495
1234	0	0	0	0	490
1235	0	0	0	0	485
1236	0	0	0	0	480
1237	0	0	0	0	475
1238	0	0	0	0	470
1239	0	0	0	0	465
1240	0	0	0	0	460
1241	0	0	0	0	455
1242	0	0	0	0	450
1243	0	0	0	0	450
1244	0	0	0	0	450
1245	0	0	0	0	450
1246	0	0	0	0	450
1247	0	0	0	0	620
1248	0	0	0	0	575
1249	0	0	0	0	570
1250	0	0	0	0	565
1251	0	0	0	0	560
1252	0	0	0	0	555
1253	0	0	0	0	550
1254	0	0	0	0	307
1255	0	0	0	0	450
1256	0	0	0	0	450
1257	0	0	0	0	450
1258	0	0	0	0	450
1259	0	0	0	0	450
1260	0	0	0	0	450
1261	0	0	0	0	450
1262	0	0	0	0	450
1263	0	0	0	0	450
1264	0	0	0	0	450
1265	0	0	0	0	450
1266	0	0	0	0	450
1267	0	0	0	0	450
1268	0	0	0	0	450
1269	0	0	0	0	450
1270	0	0	0	0	360
1271	0	0	0	0	450
1272	0	0	0	0	450
1273	0	0	0	0	450
1274	0	0	0	0	450
1275	0	0	0	0	450
1276	0	0	0	0	450
1277	0	0	0	0	450
1278	0	0	0	0	450
1279	0	0	0	0	450
1280	0	0	0	0	450
1281	0	0	0	0	450
1282	0	0	0	0	450
1283	0	0	0	0	450
1284	0	0	0	0	450
1285	0	0	0	0	450
1286	0	0	0	0	450
1287	0	0	0	0	180
1288	0	0	0	0	450
1289	0	0	0	0	450
1290	0	0	0	0	450
1291	0	0	0	0	450
1292	0	0	0	0	450
1293	0	0	0	0	450
1294	0	0	0	0	450
1295	0	0	0	0	450
1296	0	0	0	0	450
1297	0	0	0	0	450
1298	0	0	0	0	450
1299	0	0	0	0	313
1300	0	0	0	0	450
1301	0	0	0	0	450
1302	0	0	0	0	450
1303	0	0	0	0	450
1304	0	0	0	0	450
1305	0	0	0	0	450
1306	0	0	0	0	450
1307	0	0	0	0	450
1308	0	0	0	0	450
1309	0	0	0	0	450
1310	0	0	0	0	450
1311	0	0	0	0	450
1312	0	0	0	0	450
1313	0	0	0	0	450
1314	0	0	0	0	450
1315	0	0	0	0	450
1316	0	0	0	0	450
1317	0	0	0	0	450
1318	0	0	0	0	450
1319	0	0	0	0	450
1320	0	0	0	0	450
1321	0	0	0	0	450
1322	0	0	0	0	450
1323	0	0	0	0	450
1324	0	0	0	0	450
1325	0	0	0	0	450
1326	0	0	0	0	450
1327	0	0	0	0	450
1328	0	0	0	0	450
1329	0	0	0	0	450
1330	0	0	0	0	450
1331	0	0	0	0	450
1332	0	0	0	0	450
1333	0	0	0	0	450
1334	0	0	0	0	450
1335	0	0	0	0	306
1336	0	0	0	0	450
1337	0	0	0	0	450
1338	0	0	0	0	450
1339	0	0	0	0	450
1340	0	0	0	0	450
1341	0	0	0	0	450
1342	0	0	0	0	450
1343	0	0	0	0	450
1344	0	0	0	0	450
1345	0	0	0	0	450
1346	0	0	0	0	450
1347	0	0	0	0	450
1348	0	0	0	0	450
1349	0	0	0	0	450
1350	0	0	0	0	429
1351	0	0	0	0	450
1352	0	0	0	0	450
1353	0	0	0	0	450
1354	0	0	0	0	450
1355	0	0	0	0	450
1356	0	0	0	0	450
1357	0	0	0	0	450
1358	0	0	0	0	450
1359	0	0	0	0	450
1360	0	0	0	0	450
1361	0	0	0	0	450
1362	0	0	0	0	450
1363	0	0	0	0	450
1364	0	0	0	0	450
1365	0	0	0	0	450
1366	0	0	0	0	450
1367	0	0	0	0	450
1368	0	0	0	0	450
1369	0	0	0	0	450
1370	0	0	0	0	450
1371	0	0	0	0	417
1372	0	0	0	0	450
1373	0	0	0	0	450
1374	0	0	0	0	450
1375	0	0	0	0	450
1376	0	0	0	0	450
1377	0	0	0	0	450
1378	0	0	0	0	450
1379	0	0	0	0	450
1380	0	0	0	0	450
1381	0	0	0	0	450
1382	0	0	0	0	450
1383	0	0	0	0	450
1384	0	0	0	0	450
1385	0	0	0	0	450
1386	0	0	0	0	450
1387	0	0	0	0	450
1388	0	0	0	0	344
1389	0	0	0	0	450
1390	0	0	0	0	450
1391	0	0	0	0	651
1392	0	0	0	0	575
1393	0	0	0	0	570
1394	0	0	0	0	565
1395	0	0	0	0	560
1396	0	0	0	0	555
1397	0	0	0	0	550
1398	0	0	0	0	545
1399	0	0	0	0	540
1400	0	0	0	0	545
1401	0	0	0	0	550
1402	0	0	0	0	555
1403	0	0	0	0	560
1404	0	0	0	0	565
1405	0	0	0	0	570
1406	0	0	0	0	575
1407	0	0	0	0	575
1408	0	0	0	0	575
1409	0	0	0	0	575
1410	0	0	0	0	575
1411	0	0	0	0	575
1412	0	0	0	0	575
1413	0	0	0	0	575
1414	0	0	0	0	575
1415	0	0	0	0	575
1416	0	0	0	0	575
1417	0	0	0	0	267
1418	0	0	0	0	450
1419	0	0	0	0	455
1420	0	0	0	0	460
1421	0	0	0	0	465
1422	0	0	0	0	470
1423	0	0	0	0	475
1424	0	0	0	0	480
1425	0	0	0	0	485
1426	0	0	0	0	490
1427	0	0	0	0	495
1428	0	0	0	0	500
1429	0	0	0	0	505
1430	0	0	0	0	510
1431	0	0	0	0	515
1432	0	0	0	0	681
1433	0	0	0	0	575
1434	0	0	0	0	575
1435	0	0	0	0	575
1436	0	0	0	0	575
1437	0	0	0	0	575
1438	0	0	0	0	575
1439	0	0	0	0	575
1440	0	0	0	0	575
1441	0	0	0	0	575
1442	0	0	0	0	575
1443	0	0	0	0	575
1444	0	0	0	0	575
1445	0	0	0	0	575
1446	0	0	0	0	553
1447	0	0	0	0	558
1448	0	0	0	0	563
1449	0	0	0	0	568
1450	0	0	0	0	573
1451	0	0	0	0	575
1452	0	0	0	0	575
1453	0	0	0	0	575
1454	0	0	0	0	575
1455	0	0	0	0	575
1456	0	0	0	0	575
1457	0	0	0	0	575
1458	0	0	0	0	575
1459	0	0	0	0	575
1460	0	0	0	0	575
1461	0	0	0	0	575
1462	0	0	0	0	481
1463	0	0	0	0	486
1464	0	0	0	0	491
1465	0	0	0	0	496
1466	0	0	0	0	501
1467	0	0	0	0	506
1468	0	0	0	0	511
1469	0	0	0	0	516
1470	0	0	0	0	521
1471	0	0	0	0	526
1472	0	0	0	0	531
1473	0	0	0	0	536
1474	0	0	0	0	541
1475	0	0	0	0	546
1476	0	0	0	0	551
1477	0	0	0	0	556
1478	0	0	0	0	561
1479	0	0	0	0	566
1480	0	0	0	0	571
1481	0	0	0	0	575
1482	0	0	0	0	575
1483	0	0	0	0	575
1484	0	0	0	0	575
1485	0	0	0	0	575
1486	0	0	0	0	575
1487	0	0	0	0	575
1488	0	0	0	0	575
1489	0	0	0	0	575
1490	0	0	0	0	575
1491	0	0	0	0	575
1492	0	0	0	0	796
1493	0	0	0	0	575
1494	0	0	0	0	575
1495	0	0	0	0	575
1496	0	0	0	0	575
1497	0	0	0	0	575
1498	0	0	0	0	575
1499	0	0	0	0	575
1500	0	0	0	0	575
1501	0	0	0	0	575
1502	0	0	0	0	575
1503	0	0	0	0	575
1504	0	0	0	0	575
1505	0	0	0	0	575
1506	0	0	0	0	575
1507	0	0	0	0	575
1508	0	0	0	0	575
1509	0	0	0	0	575
1510	0	0	0	0	575
1511	0	0	0	0	575
1512	0	0	0	0	575
1513	0	0	0	0	575
1514	0	0	0	0	575
1515	0	0	0	0	575
1516	0	0	0	0	575
1517	0	0	0	0	575
1518	0	0	0	0	575
1519	0	0	0	0	575
1520	0	0	0	0	575
1521	0	0	0	0	575
1522	0	0	0	0	575
1523	0	0	0	0	575
1524	0	0	0	0	575
1525	0	0	0	0	575
1526	0	0	0	0	575
1527	0	0	0	0	575
1528	0	0	0	0	575
1529	0	0	0	0	250
1530	0	0	0	0	450
1531	0	0	0	0	455
1532	0	0	0	0	460
1533	0	0	0	0	543
1534	0	0	0	0	153
1535	0	0	0	0	450
1536	0	0	0	0	455
1537	0	0	0	0	460
1538	0	0	0	0	465
1539	0	0	0	0	470
1540	0	0	0	0	475
1541	0	0	0	0	480
1542	0	0	0	0	485
1543	0	0	0	0	490
1544	0	0	0	0	495
1545	0	0	0	0	500
1546	0	0	0	0	505
1547	0	0	0	0	244
1548	0	0	0	0	450
1549	0	0	0	0	455
1550	0	0	0	0	460
1551	0	0	0	0	465
1552	0	0	0	0	470
1553	0	0	0	0	475
1554	0	0	0	0	480
1555	0	0	0	0	485
1556	0	0	0	0	490
1557	0	0	0	0	495
1558	0	0	0	0	500
1559	0	0	0	0	505
1560	0	0	0	0	451
1561	0	0	0	0	588
1562	0	0	0	0	575
1563	0	0	0	0	575
1564	0	0	0	0	575
1565	0	0	0	0	575
1566	0	0	0	0	575
1567	0	0	0	0	575
1568	0	0	0	0	575
1569	0	0	0	0	575
1570	0	0	0	0	575
1571	0	0	0	0	575
1572	0	0	0	0	575
1573	0	0	0	0	575
1574	0	0	0	0	575
1575	0	0	0	0	575
1576	0	0	0	0	575
1577	0	0	0	0	575
1578	0	0	0	0	575
1579	0	0	0	0	575
1580	0	0	0	0	575
1581	0	0	0	0	575
1582	0	0	0	0	575
1583	0	0	0	0	575
1584	0	0	0	0	575
1585	0	0	0	0	575
1586	0	0	0	0	575
1587	0	0	0	0	575
1588	0	0	0	0	575
1589	0	0	0	0	575
1590	0	0	0	0	575
1591	0	0	0	0	575
1592	0	0	0	0	575
1593	0	0	0	0	575
1594	0	0	0	0	575
1595	0	0	0	0	575
1596	0	0	0	0	575
1597	0	0	0	0	575
1598	0	0	0	0	575
1599	0	0	0	0	575
1600	0	0	0	0	570
1601	0	0	0	0	565
1602	0	0	0	0	560
1603	0	0	0	0	555
1604	0	0	0	0	550
1605	0	0	0	0	545
1606	0	0	0	0	540
1607	0	0	0	0	535
1608	0	0	0	0	530
1609	0	0	0	0	525
1610	0	0	0	0	520
1611	0	0	0	0	515
1612	0	0	0	0	510
1613	0	0	0	0	505
1614	0	0	0	0	500
1615	0	0	0	0	495
1616	0	0	0	0	490
1617	0	0	0	0	679
1618	0	0	0	0	575
1619	0	0	0	0	570
1620	0	0	0	0	565
1621	0	0	0	0	560
1622	0	0	0	0	555
1623	0	0	0	0	550
1624	0	0	0	0	545
1625	0	0	0	0	540
1626	0	0	0	0	535
1627	0	0	0	0	530
1628	0	0	0	0	525
1629	0	0	0	0	520
1630	0	0	0	0	515
1631	0	0	0	0	510
1632	0	0	0	0	505
1633	0	0	0	0	500
1634	0	0	0	0	495
1635	0	0	0	0	686
1636	0	0	0	0	575
1637	0	0	0	0	570
1638	0	0	0	0	565
1639	0	0	0	0	560
1640	0	0	0	0	555
1641	0	0	0	0	550
1642	0	0	0	0	545
1643	0	0	0	0	540
1644	0	0	0	0	535
1645	0	0	0	0	530
1646	0	0	0	0	525
1647	0	0	0	0	520
1648	0	0	0	0	515
1649	0	0	0	0	510
1650	0	0	0	0	505
1651	0	0	0	0	500
1652	0	0	0	0	495
1653	0	0	0	0	490
1654	0	0	0	0	485
1655	0	0	0	0	480
1656	0	0	0	0	475
1657	0	0	0	0	470
1658	0	0	0	0	465
1659	0	0	0	0	460
1660	0	0	0	0	455
1661	0	0	0	0	450
1662	0	0	0	0	450
1663	0	0	0	0	450
1664	0	0	0	0	450
1665	0	0	0	0	450
1666	0	0	0	0	450
1667	0	0	0	0	450
1668	0	0	0	0	450
1669	0	0	0	0	450
1670	0	0	0	0	450
1671	0	0	0	0	450
1672	0	0	0	0	450
1673	0	0	0	0	450
1674	0	0	0	0	450
1675	0	0	0	0	450
1676	0	0	0	0	450
1677	0	0	0	0	450
1678	0	0	0	0	450
1679	0	0	0	0	450
1680	0	0	0	0	450
1681	0	0	0	0	450
1682	0	0	0	0	450
1683	0	0	0	0	450
1684	0	0	0	0	450
1685	0	0	0	0	450
1686	0	0	0	0	450
1687	0	0	0	0	450
1688	0	0	0	0	450
1689	0	0	0	0	450
1690	0	0	0	0	450
1691	0	0	0	0	450
1692	0	0	0	0	450
1693	0	0	0	0	450
1694	0	0	0	0	450
1695	0	0	0	0	450
1696	0	0	0	0	450
1697	0	0	0	0	450
1698	0	0	0	0	450
1699	0	0	0	0	450
1700	0	0	0	0	455
1701	0	0	0	0	460
1702	0	0	0	0	465
1703	0	0	0	0	470
1704	0	0	0	0	475
1705	0	0	0	0	480
1706	0	0	0	0	485
1707	0	0	0	0	490
1708	0	0	0	0	582
1709	0	0	0	0	575
1710	0	0	0	0	575
1711	0	0	0	0	575
1712	0	0	0	0	575
1713	0	0	0	0	575
1714	0	0	0	0	575
1715	0	0	0	0	575
1716	0	0	0	0	575
1717	0	0	0	0	575
1718	0	0	0	0	575
1719	0	0	0	0	575
1720	0	0	0	0	575
1721	0	0	0	0	575
1722	0	0	0	0	575
1723	0	0	0	0	575
1724	0	0	0	0	575
1725	0	0	0	0	575
1726	0	0	0	0	575
1727	0	0	0	0	575
1728	0	0	0	0	575
1729	0	0	0	0	575
1730	0	0	0	0	194
1731	0	0	0	0	450
1732	0	0	0	0	455
1733	0	0	0	0	460
1734	0	0	0	0	465
1735	0	0	0	0	470
1736	0	0	0	0	475
1737	0	0	0	0	480
1738	0	0	0	0	485
1739	0	0	0	0	490
1740	0	0	0	0	495
1741	0	0	0	0	500
1742	0	0	0	0	505
1743	0	0	0	0	510
1744	0	0	0	0	515
1745	0	0	0	0	520
1746	0	0	0	0	525
1747	0	0	0	0	530
1748	0	0	0	0	535
1749	0	0	0	0	540
1750	0	0	0	0	545
1751	0	0	0	0	550
1752	0	0	0	0	555
1753	0	0	0	0	560
1754	0	0	0	0	565
1755	0	0	0	0	570
1756	0	0	0	0	575
1757	0	0	0	0	575
1758	0	0	0	0	575
1759	0	0	0	0	575
1760	0	0	0	0	575
1761	0	0	0	0	575
1762	0	0	0	0	575
1763	0	0	0	0	575
1764	0	0	0	0	575
1765	0	0	0	0	575
1766	0	0	0	0	575
1767	0	0	0	0	575
1768	0	0	0	0	575
1769	0	0	0	0	575
1770	0	0	0	0	754
1771	0	0	0	0	575
1772	0	0	0	0	575
1773	0	0	0	0	575
1774	0	0	0	0	575
1775	0	0	0	0	575
1776	0	0	0	0	575
1777	0	0	0	0	575
1778	0	0	0	0	575
1779	0	0	0	0	575
1780	0	0	0	0	575
1781	0	0	0	0	575
1782	0	0	0	0	575
1783	0	0	0	0	575
1784	0	0	0	0	575
1785	0	0	0	0	575
1786	0	0	0	0	575
1787	0	0	0	0	575
1788	0	0	0	0	575
1789	0	0	0	0	575
1790	0	0	0	0	575
1791	0	0	0	0	575
1792	0	0	0	0	575
1793	0	0	0	0	575
1794	0	0	0	0	575
1795	0	0	0	0	575
1796	0	0	0	0	575
1797	0	0	0	0	575
1798	0	0	0	0	575
1799	0	0	0	0	575
1800	0	0	0	0	570
1801	0	0	0	0	565
1802	0	0	0	0	560
1803	0	0	0	0	555
1804	0	0	0	0	550
1805	0	0	0	0	545
1806	0	0	0	0	121
1807	0	0	0	0	450
1808	0	0	0	0	450
1809	0	0	0	0	450
1810	0	0	0	0	450
1811	0	0	0	0	450
1812	0	0	0	0	450
1813	0	0	0	0	450
1814	0	0	0	0	450
1815	0	0	0	0	450
1816	0	0	0	0	450
1817	0	0	0	0	490
1818	0	0	0	0	485
1819	0	0	0	0	480
1820	0	0	0	0	475
1821	0	0	0	0	470
1822	0	0	0	0	465
1823	0	0	0	0	460
1824	0	0	0	0	455
1825	0	0	0	0	450
1826	0	0	0	0	450
1827	0	0	0	0	450
1828	0	0	0	0	450
1829	0	0	0	0	450
1830	0	0	0	0	450
1831	0	0	0	0	532
1832	0	0	0	0	527
1833	0	0	0	0	522
1834	0	0	0	0	698
1835	0	0	0	0	575
1836	0	0	0	0	570
1837	0	0	0	0	565
1838	0	0	0	0	560
1839	0	0	0	0	555
1840	0	0	0	0	550
1841	0	0	0	0	545
1842	0	0	0	0	540
1843	0	0	0	0	535
1844	0	0	0	0	530
1845	0	0	0	0	720
1846	0	0	0	0	575
1847	0	0	0	0	570
1848	0	0	0	0	565
1849	0	0	0	0	560
1850	0	0	0	0	555
1851	0	0	0	0	550
1852	0	0	0	0	545
1853	0	0	0	0	540
1854	0	0	0	0	535
1855	0	0	0	0	530
1856	0	0	0	0	525
1857	0	0	0	0	520
1858	0	0	0	0	515
1859	0	0	0	0	510
1860	0	0	0	0	505
1861	0	0	0	0	500
1862	0	0	0	0	495
1863	0	0	0	0	490
1864	0	0	0	0	485
1865	0	0	0	0	428
1866	0	0	0	0	450
1867	0	0	0	0	450
1868	0	0	0	0	450
1869	0	0	0	0	450
1870	0	0	0	0	450
1871	0	0	0	0	450
1872	0	0	0	0	450
1873	0	0	0	0	450
1874	0	0	0	0	450
1875	0	0	0	0	450
1876	0	0	0	0	450
1877	0	0	0	0	450
1878	0	0	0	0	450
1879	0	0	0	0	450
1880	0	0	0	0	450
1881	0	0	0	0	450
1882	0	0	0	0	450
1883	0	0	0	0	450
1884	0	0	0	0	450
1885	0	0	0	0	450
1886	0	0	0	0	450
1887	0	0	0	0	450
1888	0	0	0	0	450
1889	0	0	0	0	450
1890	0	0	0	0	450
1891	0	0	0	0	450
1892	0	0	0	0	450
1893	0	0	0	0	450
1894	0	0	0	0	567
1895	0	0	0	0	562
1896	0	0	0	0	557
1897	0	0	0	0	552
1898	0	0	0	0	547
1899	0	0	0	0	542
1900	0	0	0	0	547
1901	0	0	0	0	552
1902	0	0	0	0	557
1903	0	0	0	0	562
1904	0	0	0	0	567
1905	0	0	0	0	572
1906	0	0	0	0	575
1907	0	0	0	0	575
1908	0	0	0	0	575
1909	0	0	0	0	575
1910	0	0	0	0	575
1911	0	0	0	0	575
1912	0	0	0	0	575
1913	0	0	0	0	575
1914	0	0	0	0	575
1915	0	0	0	0	575
1916	0	0	0	0	575
1917	0	0	0	0	575
1918	0	0	0	0	575
1919	0	0	0	0	575
1920	0	0	0	0	575
1921	0	0	0	0	575
1922	0	0	0	0	575
1923	0	0	0	0	575
1924	0	0	0	0	575
1925	0	0	0	0	575
1926	0	0	0	0	575
1927	0	0	0	0	575
1928	0	0	0	0	575
1929	0	0	0	0	575
1930	0	0	0	0	575
1931	0	0	0	0	575
1932	0	0	0	0	575
1933	0	0	0	0	575
1934	0	0	0	0	575
1935	0	0	0	0	575
1936	0	0	0	0	575
1937	0	0	0	0	575
1938	0	0	0	0	575
1939	0	0	0	0	575
1940	0	0	0	0	575
1941	0	0	0	0	575
1942	0	0	0	0	575
1943	0	0	0	0	575
1944	0	0	0	0	575
1945	0	0	0	0	575
1946	0	0	0	0	575
1947	0	0	0	0	575
1948	0	0	0	0	345
1949	0	0	0	0	450
1950	0	0	0	0	455
1951	0	0	0	0	460
1952	0	0	0	0	465
1953	0	0	0	0	470
1954	0	0	0	0	475
1955	0	0	0	0	480
1956	0	0	0	0	485
1957	0	0	0	0	490
1958	0	0	0	0	478
1959	0	0	0	0	483
1960	0	0	0	0	488
1961	0	0	0	0	493
1962	0	0	0	0	365
1963	0	0	0	0	450
1964	0	0	0	0	455
1965	0	0	0	0	460
1966	0	0	0	0	465
1967	0	0	0	0	470
1968	0	0	0	0	475
1969	0	0	0	0	480
1970	0	0	0	0	485
1971	0	0	0	0	490
1972	0	0	0	0	495
1973	0	0	0	0	500
1974	0	0	0	0	505
1975	0	0	0	0	510
1976	0	0	0	0	515
1977	0	0	0	0	520
1978	0	0	0	0	525
1979	0	0	0	0	530
1980	0	0	0	0	535
1981	0	0	0	0	540
1982	0	0	0	0	545
1983	0	0	0	0	550
1984	0	0	0	0	555
1985	0	0	0	0	560
1986	0	0	0	0	520
1987	0	0	0	0	178
1988	0	0	0	0	450
1989	0	0	0	0	455
1990	0	0	0	0	460
1991	0	0	0	0	465
1992	0	0	0	0	470
1993	0	0	0	0	475
1994	0	0	0	0	480
1995	0	0	0	0	485
1996	0	0	0	0	490
1997	0	0	0	0	495
1998	0	0	0	0	500
1999	0	0	0	0	505
2000	0	0	0	0	500
2001	0	0	0	0	495
2002	0	0	0	0	490
2003	0	0	0	0	485
2004	0	0	0	0	480
2005	0	0	0	0	475
2006	0	0	0	0	470
2007	0	0	0	0	465
2008	0	0	0	0	460
2009	0	0	0	0	455
2010	0	0	0	0	450
2011	0	0	0	0	450
2012	0	0	0	0	183
2013	0	0	0	0	450
2014	0	0	0	0	450
2015	0	0	0	0	450
2016	0	0	0	0	450
2017	0	0	0	0	450
2018	0	0	0	0	450
2019	0	0	0	0	450
2020	0	0	0	0	450
2021	0	0	0	0	450
2022	0	0	0	0	450
2023	0	0	0	0	450
2024	0	0	0	0	450
2025	0	0	0	0	450
2026	0	0	0	0	450
2027	0	0	0	0	450
2028	0	0	0	0	450
2029	0	0	0	0	450
2030	0	0	0	0	450
2031	0	0	0	0	337
2032	0	0	0	0	450
2033	0	0	0	0	450
2034	0	0	0	0	450
2035	0	0	0	0	450
2036	0	0	0	0	450
2037	0	0	0	0	450
2038	0	0	0	0	450
2039	0	0	0	0	450
2040	0	0	0	0	450
2041	0	0	0	0	220
2042	0	0	0	0	450
2043	0	0	0	0	450
2044	0	0	0	0	450
2045	0	0	0	0	450
2046	0	0	0	0	450
2047	0	0	0	0	298
2048	0	0	0	0	450
2049	0	0	0	0	450
2050	0	0	0	0	450
2051	0	0	0	0	450
2052	0	0	0	0	450
2053	0	0	0	0	450
2054	0	0	0	0	450
2055	0	0	0	0	450
2056	0	0	0	0	450
2057	0	0	0	0	450
2058	0	0	0	0	450
2059	0	0	0	0	450
2060	0	0	0	0	450
2061	0	0	0	0	450
2062	0	0	0	0	180
2063	0	0	0	0	450
2064	0	0	0	0	450
2065	0	0	0	0	450
2066	0	0	0	0	450
2067	0	0	0	0	450
2068	0	0	0	0	450
2069	0	0	0	0	450
2070	0	0	0	0	512
2071	0	0	0	0	507
2072	0	0	0	0	502
2073	0	0	0	0	497
2074	0	0	0	0	492
2075	0	0	0	0	487
2076	0	0	0	0	482
2077	0	0	0	0	477
2078	0	0	0	0	472
2079	0	0	0	0	467
2080	0	0	0	0	462
2081	0	0	0	0	457
2082	0	0	0	0	452
2083	0	0	0	0	450
2084	0	0	0	0	450
2085	0	0	0	0	450
2086	0	0	0	0	450
2087	0	0	0	0	450
2088	0	0	0	0	450
2089	0	0	0	0	450
2090	0	0	0	0	450
2091	0	0	0	0	450
2092	0	0	0	0	450
2093	0	0	0	0	450
2094	0	0	0	0	450
2095	0	0	0	0	450
2096	0	0	0	0	450
2097	0	0	0	0	450
2098	0	0	0	0	450
2099	0	0	0	0	450
2100	0	0	0	0	450
2101	0	0	0	0	450
2102	0	0	0	0	450
2103	0	0	0	0	450
2104	0	0	0	0	450
2105	0	0	0	0	450
2106	0	0	0	0	216
2107	0	0	0	0	754
2108	0	0	0	0	575
2109	0	0	0	0	570
2110	0	0	0	0	565
2111	0	0	0	0	560
2112	0	0	0	0	555
2113	0	0	0	0	550
2114	0	0	0	0	712
2115	0	0	0	0	575
2116	0	0	0	0	570
2117	0	0	0	0	565
2118	0	0	0	0	560
2119	0	0	0	0	555
2120	0	0	0	0	550
2121	0	0	0	0	545
2122	0	0	0	0	540
2123	0	0	0	0	535
2124	0	0	0	0	530
2125	0	0	0	0	525
2126	0	0	0	0	520
2127	0	0	0	0	515
2128	0	0	0	0	510
2129	0	0	0	0	505
2130	0	0	0	0	500
2131	0	0	0	0	495
2132	0	0	0	0	490
2133	0	0	0	0	485
2134	0	0	0	0	480
2135	0	0	0	0	475
2136	0	0	0	0	470
2137	0	0	0	0	465
2138	0	0	0	0	460
2139	0	0	0	0	455
2140	0	0	0	0	450
2141	0	0	0	0	450
2142	0	0	0	0	450
2143	0	0	0	0	450
2144	0	0	0	0	450
2145	0	0	0	0	450
2146	0	0	0	0	450
2147	0	0	0	0	450
2148	0	0	0	0	450
2149	0	0	0	0	123
2150	0	0	0	0	450
2151	0	0	0	0	450
2152	0	0	0	0	396
2153	0	0	0	0	450
2154	0	0	0	0	450
2155	0	0	0	0	450
2156	0	0	0	0	450
2157	0	0	0	0	450
2158	0	0	0	0	450
2159	0	0	0	0	450
2160	0	0	0	0	450
2161	0	0	0	0	450
2162	0	0	0	0	450
2163	0	0	0	0	450
2164	0	0	0	0	450
2165	0	0	0	0	450
2166	0	0	0	0	450
2167	0	0	0	0	450
2168	0	0	0	0	450
2169	0	0	0	0	450
2170	0	0	0	0	450
2171	0	0	0	0	450
2172	0	0	0	0	450
2173	0	0	0	0	450
2174	0	0	0	0	450
2175	0	0	0	0	450
2176	0	0	0	0	450
2177	0	0	0	0	450
2178	0	0	0	0	450
2179	0	0	0	0	450
2180	0	0	0	0	450
2181	0	0	0	0	450
2182	0	0	0	0	450
2183	0	0	0	0	450
2184	0	0	0	0	450
2185	0	0	0	0	450
2186	0	0	0	0	450
2187	0	0	0	0	450
2188	0	0	0	0	450
2189	0	0	0	0	450
2190	0	0	0	0	450
2191	0	0	0	0	450
2192	0	0	0	0	450
2193	0	0	0	0	450
2194	0	0	0	0	450
2195	0	0	0	0	450
2196	0	0	0	0	450
2197	0	0	0	0	450
2198	0	0	0	0	450
2199	0	0	0	0	450
2200	0	0	0	0	450
2201	0	0	0	0	450
2202	0	0	0	0	450
2203	0	0	0	0	450
2204	0	0	0	0	450
2205	0	0	0	0	450
2206	0	0	0	0	450
2207	0	0	0	0	450
2208	0	0	0	0	450
2209	0	0	0	0	450
2210	0	0	0	0	450
2211	0	0	0	0	450
2212	0	0	0	0	720
2213	0	0	0	0	575
2214	0	0	0	0	570
2215	0	0	0	0	565
2216	0	0	0	0	560
2217	0	0	0	0	555
2218	0	0	0	0	713
2219	0	0	0	0	575
2220	0	0	0	0	570
2221	0	0	0	0	565
2222	0	0	0	0	560
2223	0	0	0	0	555
2224	0	0	0	0	550
2225	0	0	0	0	545
2226	0	0	0	0	540
2227	0	0	0	0	535
2228	0	0	0	0	530
2229	0	0	0	0	525
2230	0	0	0	0	520
2231	0	0	0	0	515
2232	0	0	0	0	510
2233	0	0	0	0	505
2234	0	0	0	0	500
2235	0	0	0	0	495
2236	0	0	0	0	490
2237	0	0	0	0	552
2238	0	0	0	0	547
2239	0	0	0	0	542
2240	0	0	0	0	537
2241	0	0	0	0	532
2242	0	0	0	0	527
2243	0	0	0	0	522
2244	0	0	0	0	517
2245	0	0	0	0	512
2246	0	0	0	0	507
2247	0	0	0	0	502
2248	0	0	0	0	497
2249	0	0	0	0	492
2250	0	0	0	0	487
2251	0	0	0	0	795
2252	0	0	0	0	575
2253	0	0	0	0	570
2254	0	0	0	0	565
2255	0	0	0	0	560
2256	0	0	0	0	555
2257	0	0	0	0	550
2258	0	0	0	0	545
2259	0	0	0	0	540
2260	0	0	0	0	535
2261	0	0	0	0	445
2262	0	0	0	0	450
2263	0	0	0	0	450
2264	0	0	0	0	450
2265	0	0	0	0	450
2266	0	0	0	0	450
2267	0	0	0	0	450
2268	0	0	0	0	450
2269	0	0	0	0	450
2270	0	0	0	0	450
2271	0	0	0	0	450
2272	0	0	0	0	450
2273	0	0	0	0	450
2274	0	0	0	0	450
2275	0	0	0	0	450
2276	0	0	0	0	450
2277	0	0	0	0	450
2278	0	0	0	0	450
2279	0	0	0	0	450
2280	0	0	0	0	450
2281	0	0	0	0	450
2282	0	0	0	0	450
2283	0	0	0	0	450
2284	0	0	0	0	450
2285	0	0	0	0	450
2286	0	0	0	0	450
2287	0	0	0	0	450
2288	0	0	0	0	450
2289	0	0	0	0	450
2290	0	0	0	0	450
2291	0	0	0	0	396
2292	0	0	0	0	450
2293	0	0	0	0	450
2294	0	0	0	0	178
2295	0	0	0	0	450
2296	0	0	0	0	450
2297	0	0	0	0	450
2298	0	0	0	0	450
2299	0	0	0	0	450
2300	0	0	0	0	450
2301	0	0	0	0	122
2302	0	0	0	0	450
2303	0	0	0	0	450
2304	0	0	0	0	450
2305	0	0	0	0	450
2306	0	0	0	0	450
2307	0	0	0	0	450
2308	0	0	0	0	450
2309	0	0	0	0	450
2310	0	0	0	0	450
2311	0	0	0	0	450
2312	0	0	0	0	450
2313	0	0	0	0	450
2314	0	0	0	0	450
2315	0	0	0	0	450
2316	0	0	0	0	450
2317	0	0	0	0	450
2318	0	0	0	0	450
2319	0	0	0	0	450
2320	0	0	0	0	450
2321	0	0	0	0	450
2322	0	0	0	0	450
2323	0	0	0	0	450
2324	0	0	0	0	450
2325	0	0	0	0	450
2326	0	0	0	0	450
2327	0	0	0	0	450
2328	0	0	0	0	450
2329	0	0	0	0	450
2330	0	0	0	0	357
2331	0	0	0	0	450
2332	0	0	0	0	450
2333	0	0	0	0	450
2334	0	0	0	0	450
2335	0	0	0	0	450
2336	0	0	0	0	450
2337	0	0	0	0	589
2338	0	0	0	0	575
2339	0	0	0	0	570
2340	0	0	0	0	565
2341	0	0	0	0	560
2342	0	0	0	0	555
2343	0	0	0	0	550
2344	0	0	0	0	545
2345	0	0	0	0	540
2346	0	0	0	0	535
2347	0	0	0	0	530
2348	0	0	0	0	525
2349	0	0	0	0	520
2350	0	0	0	0	515
2351	0	0	0	0	648
2352	0	0	0	0	575
2353	0	0	0	0	570
2354	0	0	0	0	565
2355	0	0	0	0	560
2356	0	0	0	0	555
2357	0	0	0	0	550
2358	0	0	0	0	545
2359	0	0	0	0	540
2360	0	0	0	0	535
2361	0	0	0	0	530
2362	0	0	0	0	525
2363	0	0	0	0	520
2364	0	0	0	0	515
2365	0	0	0	0	510
2366	0	0	0	0	505
2367	0	0	0	0	500
2368	0	0	0	0	495
2369	0	0	0	0	490
2370	0	0	0	0	485
2371	0	0	0	0	480
2372	0	0	0	0	475
2373	0	0	0	0	470
2374	0	0	0	0	465
2375	0	0	0	0	460
2376	0	0	0	0	455
2377	0	0	0	0	450
2378	0	0	0	0	450
2379	0	0	0	0	450
2380	0	0	0	0	450
2381	0	0	0	0	450
2382	0	0	0	0	450
2383	0	0	0	0	450
2384	0	0	0	0	450
2385	0	0	0	0	450
2386	0	0	0	0	450
2387	0	0	0	0	450
2388	0	0	0	0	450
2389	0	0	0	0	450
2390	0	0	0	0	450
2391	0	0	0	0	450
2392	0	0	0	0	450
2393	0	0	0	0	450
2394	0	0	0	0	450
2395	0	0	0	0	450
2396	0	0	0	0	450
2397	0	0	0	0	450
2398	0	0	0	0	450
2399	0	0	0	0	450
2400	0	0	0	0	455
2401	0	0	0	0	460
2402	0	0	0	0	465
2403	0	0	0	0	470
2404	0	0	0	0	475
2405	0	0	0	0	480
2406	0	0	0	0	485
2407	0	0	0	0	490
2408	0	0	0	0	495
2409	0	0	0	0	500
2410	0	0	0	0	505
2411	0	0	0	0	510
2412	0	0	0	0	150
2413	0	0	0	0	450
2414	0	0	0	0	455
2415	0	0	0	0	460
2416	0	0	0	0	539
2417	0	0	0	0	544
2418	0	0	0	0	549
2419	0	0	0	0	554
2420	0	0	0	0	559
2421	0	0	0	0	564
2422	0	0	0	0	277
2423	0	0	0	0	450
2424	0	0	0	0	455
2425	0	0	0	0	460
2426	0	0	0	0	465
2427	0	0	0	0	470
2428	0	0	0	0	475
2429	0	0	0	0	480
2430	0	0	0	0	485
2431	0	0	0	0	490
2432	0	0	0	0	495
2433	0	0	0	0	500
2434	0	0	0	0	505
2435	0	0	0	0	510
2436	0	0	0	0	515
2437	0	0	0	0	520
2438	0	0	0	0	525
2439	0	0	0	0	530
2440	0	0	0	0	535
2441	0	0	0	0	540
2442	0	0	0	0	545
2443	0	0	0	0	550
2444	0	0	0	0	555
2445	0	0	0	0	560
2446	0	0	0	0	565
2447	0	0	0	0	707
2448	0	0	0	0	575
2449	0	0	0	0	575
2450	0	0	0	0	575
2451	0	0	0	0	575
2452	0	0	0	0	575
2453	0	0	0	0	575
2454	0	0	0	0	575
2455	0	0	0	0	575
2456	0	0	0	0	575
2457	0	0	0	0	575
2458	0	0	0	0	575
2459	0	0	0	0	575
2460	0	0	0	0	575
2461	0	0	0	0	575
2462	0	0	0	0	575
2463	0	0	0	0	575
2464	0	0	0	0	575
2465	0	0	0	0	112
2466	0	0	0	0	450
2467	0	0	0	0	455
2468	0	0	0	0	460
2469	0	0	0	0	539
2470	0	0	0	0	544
2471	0	0	0	0	549
2472	0	0	0	0	554
2473	0	0	0	0	559
2474	0	0	0	0	564
2475	0	0	0	0	569
2476	0	0	0	0	574
2477	0	0	0	0	575
2478	0	0	0	0	575
2479	0	0	0	0	575
2480	0	0	0	0	575
2481	0	0	0	0	575
2482	0	0	0	0	575
2483	0	0	0	0	575
2484	0	0	0	0	575
2485	0	0	0	0	575
2486	0	0	0	0	575
2487	0	0	0	0	575
2488	0	0	0	0	575
2489	0	0	0	0	575
2490	0	0	0	0	575
2491	0	0	0	0	575
2492	0	0	0	0	167
2493	0	0	0	0	450
2494	0	0	0	0	455
2495	0	0	0	0	460
2496	0	0	0	0	465
2497	0	0	0	0	470
2498	0	0	0	0	475
2499	0	0	0	0	480
2500	0	0	0	0	475
2501	0	0	0	0	779
2502	0	0	0	0	575
2503	0	0	0	0	570
2504	0	0	0	0	565
2505	0	0	0	0	560
2506	0	0	0	0	555
2507	0	0	0	0	550
2508	0	0	0	0	545
2509	0	0	0	0	540
2510	0	0	0	0	535
2511	0	0	0	0	530
2512	0	0	0	0	525
2513	0	0	0	0	520
2514	0	0	0	0	515
2515	0	0	0	0	510
2516	0	0	0	0	505
2517	0	0	0	0	500
2518	0	0	0	0	495
2519	0	0	0	0	490
2520	0	0	0	0	485
2521	0	0	0	0	480
2522	0	0	0	0	475
2523	0	0	0	0	470
2524	0	0	0	0	465
2525	0	0	0	0	731
2526	0	0	0	0	575
2527	0	0	0	0	570
2528	0	0	0	0	526
2529	0	0	0	0	521
2530	0	0	0	0	516
2531	0	0	0	0	511
2532	0	0	0	0	506
2533	0	0	0	0	501
2534	0	0	0	0	496
2535	0	0	0	0	491
2536	0	0	0	0	177
2537	0	0	0	0	450
2538	0	0	0	0	450
2539	0	0	0	0	450
2540	0	0	0	0	450
2541	0	0	0	0	450
2542	0	0	0	0	450
2543	0	0	0	0	450
2544	0	0	0	0	450
2545	0	0	0	0	450
2546	0	0	0	0	450
2547	0	0	0	0	450
2548	0	0	0	0	450
2549	0	0	0	0	450
2550	0	0	0	0	450
2551	0	0	0	0	450
2552	0	0	0	0	450
2553	0	0	0	0	450
2554	0	0	0	0	450
2555	0	0	0	0	450
2556	0	0	0	0	450
2557	0	0	0	0	141
2558	0	0	0	0	450
2559	0	0	0	0	450
2560	0	0	0	0	450
2561	0	0	0	0	450
2562	0	0	0	0	450
2563	0	0	0	0	450
2564	0	0	0	0	450
2565	0	0	0	0	450
2566	0	0	0	0	450
2567	0	0	0	0	450
2568	0	0	0	0	450
2569	0	0	0	0	450
2570	0	0	0	0	450
2571	0	0	0	0	450
2572	0	0	0	0	450
2573	0	0	0	0	450
2574	0	0	0	0	450
2575	0	0	0	0	450
2576	0	0	0	0	450
2577	0	0	0	0	450
2578	0	0	0	0	450
2579	0	0	0	0	450
2580	0	0	0	0	450
2581	0	0	0	0	450
2582	0	0	0	0	450
2583	0	0	0	0	450
2584	0	0	0	0	450
2585	0	0	0	0	450
2586	0	0	0	0	450
2587	0	0	0	0	450
2588	0	0	0	0	450
2589	0	0	0	0	450
2590	0	0	0	0	450
2591	0	0	0	0	450
2592	0	0	0	0	450
2593	0	0	0	0	450
2594	0	0	0	0	381
2595	0	0	0	0	450
2596	0	0	0	0	450
2597	0	0	0	0	450
2598	0	0	0	0	450
2599	0	0	0	0	450
2600	0	0	0	0	450
2601	0	0	0	0	450
2602	0	0	0	0	450
2603	0	0	0	0	450
2604	0	0	0	0	450
2605	0	0	0	0	450
2606	0	0	0	0	450
2607	0	0	0	0	450
2608	0	0	0	0	450
2609	0	0	0	0	450
2610	0	0	0	0	450
2611	0	0	0	0	450
2612	0	0	0	0	758
2613	0	0	0	0	575
2614	0	0	0	0	570
2615	0	0	0	0	565
2616	0	0	0	0	560
2617	0	0	0	0	555
2618	0	0	0	0	550
2619	0	0	0	0	545
2620	0	0	0	0	540
2621	0	0	0	0	535
2622	0	0	0	0	530
2623	0	0	0	0	525
2624	0	0	0	0	520
2625	0	0	0	0	515
2626	0	0	0	0	510
2627	0	0	0	0	505
2628	0	0	0	0	500
2629	0	0	0	0	495
2630	0	0	0	0	490
2631	0	0	0	0	485
2632	0	0	0	0	480
2633	0	0	0	0	475
2634	0	0	0	0	470
2635	0	0	0	0	465
2636	0	0	0	0	460
2637	0	0	0	0	455
2638	0	0	0	0	450
2639	0	0	0	0	450
2640	0	0	0	0	758
2641	0	0	0	0	575
2642	0	0	0	0	570
2643	0	0	0	0	565
2644	0	0	0	0	348
2645	0	0	0	0	764
2646	0	0	0	0	575
2647	0	0	0	0	570
2648	0	0	0	0	565
2649	0	0	0	0	560
2650	0	0	0	0	555
2651	0	0	0	0	550
2652	0	0	0	0	545
2653	0	0	0	0	540
2654	0	0	0	0	535
2655	0	0	0	0	530
2656	0	0	0	0	525
2657	0	0	0	0	520
2658	0	0	0	0	515
2659	0	0	0	0	510
2660	0	0	0	0	505
2661	0	0	0	0	500
2662	0	0	0	0	495
2663	0	0	0	0	490
2664	0	0	0	0	485
2665	0	0	0	0	480
2666	0	0	0	0	475
2667	0	0	0	0	470
2668	0	0	0	0	465
2669	0	0	0	0	460
2670	0	0	0	0	455
2671	0	0	0	0	450
2672	0	0	0	0	450
2673	0	0	0	0	450
2674	0	0	0	0	450
2675	0	0	0	0	450
2676	0	0	0	0	450
2677	0	0	0	0	450
2678	0	0	0	0	450
2679	0	0	0	0	450
2680	0	0	0	0	450
2681	0	0	0	0	450
2682	0	0	0	0	450
2683	0	0	0	0	450
2684	0	0	0	0	450
2685	0	0	0	0	450
2686	0	0	0	0	450
2687	0	0	0	0	450
2688	0	0	0	0	450
2689	0	0	0	0	450
2690	0	0	0	0	450
2691	0	0	0	0	450
2692	0	0	0	0	450
2693	0	0	0	0	450
2694	0	0	0	0	450
2695	0	0	0	0	450
2696	0	0	0	0	450
2697	0	0	0	0	450
2698	0	0	0	0	450
2699	0	0	0	0	450
2700	0	0	0	0	505
2701	0	0	0	0	500
2702	0	0	0	0	495
2703	0	0	0	0	490
2704	0	0	0	0	485
2705	0	0	0	0	480
2706	0	0	0	0	475
2707	0	0	0	0	470
2708	0	0	0	0	465
2709	0	0	0	0	460
2710	0	0	0	0	455
2711	0	0	0	0	450
2712	0	0	0	0	450
2713	0	0	0	0	450
2714	0	0	0	0	450
2715	0	0	0	0	450
2716	0	0	0	0	450
2717	0	0	0	0	450
2718	0	0	0	0	450
2719	0	0	0	0	450
2720	0	0	0	0	450
2721	0	0	0	0	450
2722	0	0	0	0	450
2723	0	0	0	0	450
2724	0	0	0	0	450
2725	0	0	0	0	450
2726	0	0	0	0	450
2727	0	0	0	0	450
2728	0	0	0	0	450
2729	0	0	0	0	450
2730	0	0	0	0	220
2731	0	0	0	0	450
2732	0	0	0	0	450
2733	0	0	0	0	450
2734	0	0	0	0	450
2735	0	0	0	0	450
2736	0	0	0	0	450
2737	0	0	0	0	450
2738	0	0	0	0	450
2739	0	0	0	0	450
2740	0	0	0	0	450
2741	0	0	0	0	450
2742	0	0	0	0	450
2743	0	0	0	0	450
2744	0	0	0	0	450
2745	0	0	0	0	450
2746	0	0	0	0	450
2747	0	0	0	0	450
2748	0	0	0	0	450
2749	0	0	0	0	689
2750	0	0	0	0	575
2751	0	0	0	0	570
2752	0	0	0	0	565
2753	0	0	0	0	560
2754	0	0	0	0	555
2755	0	0	0	0	550
2756	0	0	0	0	545
2757	0	0	0	0	540
2758	0	0	0	0	535
2759	0	0	0	0	530
2760	0	0	0	0	525
2761	0	0	0	0	794
2762	0	0	0	0	575
2763	0	0	0	0	570
2764	0	0	0	0	565
2765	0	0	0	0	560
2766	0	0	0	0	555
2767	0	0	0	0	550
2768	0	0	0	0	545
2769	0	0	0	0	540
2770	0	0	0	0	535
2771	0	0	0	0	530
2772	0	0	0	0	525
2773	0	0	0	0	520
2774	0	0	0	0	515
2775	0	0	0	0	510
2776	0	0	0	0	505
2777	0	0	0	0	500
2778	0	0	0	0	495
2779	0	0	0	0	490
2780	0	0	0	0	485
2781	0	0	0	0	480
2782	0	0	0	0	475
2783	0	0	0	0	470
2784	0	0	0	0	465
2785	0	0	0	0	460
2786	0	0	0	0	455
2787	0	0	0	0	450
2788	0	0	0	0	450
2789	0	0	0	0	450
2790	0	0	0	0	450
2791	0	0	0	0	450
2792	0	0	0	0	450
2793	0	0	0	0	450
2794	0	0	0	0	450
2795	0	0	0	0	450
2796	0	0	0	0	450
2797	0	0	0	0	450
2798	0	0	0	0	450
2799	0	0	0	0	450
2800	0	0	0	0	455
2801	0	0	0	0	460
2802	0	0	0	0	465
2803	0	0	0	0	470
2804	0	0	0	0	475
2805	0	0	0	0	480
2806	0	0	0	0	560
2807	0	0	0	0	565
2808	0	0	0	0	570
2809	0	0	0	0	575
2810	0	0	0	0	575
2811	0	0	0	0	575
2812	0	0	0	0	575
2813	0	0	0	0	575
2814	0	0	0	0	575
2815	0	0	0	0	575
2816	0	0	0	0	575
2817	0	0	0	0	575
2818	0	0	0	0	575
2819	0	0	0	0	575
2820	0	0	0	0	575
2821	0	0	0	0	575
2822	0	0	0	0	781
2823	0	0	0	0	575
2824	0	0	0	0	575
2825	0	0	0	0	575
2826	0	0	0	0	575
2827	0	0	0	0	575
2828	0	0	0	0	575
2829	0	0	0	0	575
2830	0	0	0	0	575
2831	0	0	0	0	575
2832	0	0	0	0	407
2833	0	0	0	0	450
2834	0	0	0	0	455
2835	0	0	0	0	460
2836	0	0	0	0	317
2837	0	0	0	0	450
2838	0	0	0	0	552
2839	0	0	0	0	465
2840	0	0	0	0	470
2841	0	0	0	0	142
2842	0	0	0	0	450
2843	0	0	0	0	455
2844	0	0	0	0	460
2845	0	0	0	0	465
2846	0	0	0	0	470
2847	0	0	0	0	475
2848	0	0	0	0	480
2849	0	0	0	0	485
2850	0	0	0	0	490
2851	0	0	0	0	495
2852	0	0	0	0	500
2853	0	0	0	0	505
2854	0	0	0	0	510
2855	0	0	0	0	515
2856	0	0	0	0	520
2857	0	0	0	0	525
2858	0	0	0	0	530
2859	0	0	0	0	535
2860	0	0	0	0	540
2861	0	0	0	0	545
2862	0	0	0	0	550
2863	0	0	0	0	555
2864	0	0	0	0	560
2865	0	0	0	0	565
2866	0	0	0	0	570
2867	0	0	0	0	575
2868	0	0	0	0	575
2869	0	0	0	0	575
2870	0	0	0	0	575
2871	0	0	0	0	575
2872	0	0	0	0	575
2873	0	0	0	0	575
2874	0	0	0	0	575
2875	0	0	0	0	575
2876	0	0	0	0	575
2877	0	0	0	0	575
2878	0	0	0	0	575
2879	0	0	0	0	575
2880	0	0	0	0	325
2881	0	0	0	0	450
2882	0	0	0	0	455
2883	0	0	0	0	460
2884	0	0	0	0	465
2885	0	0	0	0	470
2886	0	0	0	0	489
2887	0	0	0	0	494
2888	0	0	0	0	499
2889	0	0	0	0	504
2890	0	0	0	0	509
2891	0	0	0	0	514
2892	0	0	0	0	519
2893	0	0	0	0	524
2894	0	0	0	0	529
2895	0	0	0	0	534
2896	0	0	0	0	539
2897	0	0	0	0	544
2898	0	0	0	0	549
2899	0	0	0	0	554
2900	0	0	0	0	559
2901	0	0	0	0	564
2902	0	0	0	0	569
2903	0	0	0	0	574
2904	0	0	0	0	575
2905	0	0	0	0	575
2906	0	0	0	0	575
2907	0	0	0	0	575
2908	0	0	0	0	231
2909	0	0	0	0	450
2910	0	0	0	0	455
2911	0	0	0	0	460
2912	0	0	0	0	465
2913	0	0	0	0	470
2914	0	0	0	0	475
2915	0	0	0	0	480
2916	0	0	0	0	485
2917	0	0	0	0	490
2918	0	0	0	0	495
2919	0	0	0	0	500
2920	0	0	0	0	327
2921	0	0	0	0	450
2922	0	0	0	0	455
2923	0	0	0	0	460
2924	0	0	0	0	465
2925	0	0	0	0	470
2926	0	0	0	0	475
2927	0	0	0	0	480
2928	0	0	0	0	485
2929	0	0	0	0	490
2930	0	0	0	0	495
2931	0	0	0	0	500
2932	0	0	0	0	505
2933	0	0	0	0	510
2934	0	0	0	0	515
2935	0	0	0	0	520
2936	0	0	0	0	525
2937	0	0	0	0	530
2938	0	0	0	0	535
2939	0	0	0	0	540
2940	0	0	0	0	545
2941	0	0	0	0	550
2942	0	0	0	0	555
2943	0	0	0	0	560
2944	0	0	0	0	565
2945	0	0	0	0	570
2946	0	0	0	0	575
2947	0	0	0	0	575
2948	0	0	0	0	575
2949	0	0	0	0	575
2950	0	0	0	0	575
2951	0	0	0	0	575
2952	0	0	0	0	575
2953	0	0	0	0	575
2954	0	0	0	0	575
2955	0	0	0	0	575
2956	0	0	0	0	575
2957	0	0	0	0	575
2958	0	0	0	0	328
2959	0	0	0	0	381
2960	0	0	0	0	450
2961	0	0	0	0	639
2962	0	0	0	0	575
2963	0	0	0	0	575
2964	0	0	0	0	575
2965	0	0	0	0	575
2966	0	0	0	0	575
2967	0	0	0	0	575
2968	0	0	0	0	575
2969	0	0	0	0	575
2970	0	0	0	0	575
2971	0	0	0	0	575
2972	0	0	0	0	162
2973	0	0	0	0	450
2974	0	0	0	0	455
2975	0	0	0	0	460
2976	0	0	0	0	465
2977	0	0	0	0	470
2978	0	0	0	0	475
2979	0	0	0	0	480
2980	0	0	0	0	485
2981	0	0	0	0	490
2982	0	0	0	0	495
2983	0	0	0	0	500
2984	0	0	0	0	505
2985	0	0	0	0	510
2986	0	0	0	0	515
2987	0	0	0	0	520
2988	0	0	0	0	525
2989	0	0	0	0	530
2990	0	0	0	0	535
2991	0	0	0	0	540
2992	0	0	0	0	545
2993	0	0	0	0	550
2994	0	0	0	0	555
2995	0	0	0	0	560
2996	0	0	0	0	565
2997	0	0	0	0	570
2998	0	0	0	0	575
2999	0	0	0	0	575
3000	0	0	0	0	570
3001	0	0	0	0	565
3002	0	0	0	0	560
3003	0	0	0	0	555
3004	0	0	0	0	550
3005	0	0	0	0	545
3006	0	0	0	0	540
3007	0	0	0	0	535
3008	0	0	0	0	530
3009	0	0	0	0	525
3010	0	0	0	0	520
3011	0	0	0	0	515
3012	0	0	0	0	510
3013	0	0	0	0	505
3014	0	0	0	0	500
3015	0	0	0	0	495
3016	0	0	0	0	490
3017	0	0	0	0	485
3018	0	0	0	0	480
3019	0	0	0	0	475
3020	0	0	0	0	470
3021	0	0	0	0	465
3022	0	0	0	0	460
3023	0	0	0	0	455
3024	0	0	0	0	450
3025	0	0	0	0	450
3026	0	0	0	0	450
3027	0	0	0	0	450
3028	0	0	0	0	450
3029	0	0	0	0	670
3030	0	0	0	0	575
3031	0	0	0	0	570
3032	0	0	0	0	565
3033	0	0	0	0	560
3034	0	0	0	0	555
3035	0	0	0	0	550
3036	0	0	0	0	545
3037	0	0	0	0	540
3038	0	0	0	0	535
3039	0	0	0	0	530
3040	0	0	0	0	525
3041	0	0	0	0	520
3042	0	0	0	0	515
3043	0	0	0	0	510
3044	0	0	0	0	505
3045	0	0	0	0	500
3046	0	0	0	0	599
3047	0	0	0	0	575
3048	0	0	0	0	570
3049	0	0	0	0	565
3050	0	0	0	0	560
3051	0	0	0	0	555
3052	0	0	0	0	550
3053	0	0	0	0	545
3054	0	0	0	0	540
3055	0	0	0	0	535
3056	0	0	0	0	530
3057	0	0	0	0	525
3058	0	0	0	0	520
3059	0	0	0	0	515
3060	0	0	0	0	510
3061	0	0	0	0	505
3062	0	0	0	0	500
3063	0	0	0	0	495
3064	0	0	0	0	490
3065	0	0	0	0	485
3066	0	0	0	0	480
3067	0	0	0	0	475
3068	0	0	0	0	470
3069	0	0	0	0	465
3070	0	0	0	0	460
3071	0	0	0	0	455
3072	0	0	0	0	593
3073	0	0	0	0	575
3074	0	0	0	0	398
3075	0	0	0	0	450
3076	0	0	0	0	450
3077	0	0	0	0	370
3078	0	0	0	0	450
3079	0	0	0	0	450
3080	0	0	0	0	450
3081	0	0	0	0	450
3082	0	0	0	0	450
3083	0	0	0	0	450
3084	0	0	0	0	450
3085	0	0	0	0	450
3086	0	0	0	0	450
3087	0	0	0	0	450
3088	0	0	0	0	450
3089	0	0	0	0	450
3090	0	0	0	0	450
3091	0	0	0	0	450
3092	0	0	0	0	450
3093	0	0	0	0	450
3094	0	0	0	0	450
3095	0	0	0	0	450
3096	0	0	0	0	450
3097	0	0	0	0	450
3098	0	0	0	0	450
3099	0	0	0	0	450
3100	0	0	0	0	450
3101	0	0	0	0	450
3102	0	0	0	0	450
3103	0	0	0	0	450
3104	0	0	0	0	450
3105	0	0	0	0	450
3106	0	0	0	0	450
3107	0	0	0	0	450
3108	0	0	0	0	450
3109	0	0	0	0	450
3110	0	0	0	0	450
3111	0	0	0	0	450
3112	0	0	0	0	450
3113	0	0	0	0	450
3114	0	0	0	0	450
3115	0	0	0	0	450
3116	0	0	0	0	450
3117	0	0	0	0	450
3118	0	0	0	0	450
3119	0	0	0	0	450
3120	0	0	0	0	450
3121	0	0	0	0	450
3122	0	0	0	0	450
3123	0	0	0	0	450
3124	0	0	0	0	450
3125	0	0	0	0	450
3126	0	0	0	0	450
3127	0	0	0	0	450
3128	0	0	0	0	450
3129	0	0	0	0	450
3130	0	0	0	0	450
3131	0	0	0	0	450
3132	0	0	0	0	450
3133	0	0	0	0	450
3134	0	0	0	0	450
3135	0	0	0	0	450
3136	0	0	0	0	450
3137	0	0	0	0	450
3138	0	0	0	0	450
3139	0	0	0	0	450
3140	0	0	0	0	450
3141	0	0	0	0	450
3142	0	0	0	0	450
3143	0	0	0	0	450
3144	0	0	0	0	450
3145	0	0	0	0	450
3146	0	0	0	0	450
3147	0	0	0	0	450
3148	0	0	0	0	450
3149	0	0	0	0	450
3150	0	0	0	0	450
3151	0	0	0	0	450
3152	0	0	0	0	450
3153	0	0	0	0	326
3154	0	0	0	0	450
3155	0	0	0	0	602
3156	0	0	0	0	575
3157	0	0	0	0	570
3158	0	0	0	0	565
3159	0	0	0	0	560
3160	0	0	0	0	555
3161	0	0	0	0	550
3162	0	0	0	0	545
3163	0	0	0	0	540
3164	0	0	0	0	535
3165	0	0	0	0	530
3166	0	0	0	0	525
3167	0	0	0	0	520
3168	0	0	0	0	515
3169	0	0	0	0	510
3170	0	0	0	0	505
3171	0	0	0	0	500
3172	0	0	0	0	495
3173	0	0	0	0	490
3174	0	0	0	0	485
3175	0	0	0	0	480
3176	0	0	0	0	475
3177	0	0	0	0	470
3178	0	0	0	0	465
3179	0	0	0	0	460
3180	0	0	0	0	455
3181	0	0	0	0	450
3182	0	0	0	0	379
3183	0	0	0	0	450
3184	0	0	0	0	450
3185	0	0	0	0	450
3186	0	0	0	0	450
3187	0	0	0	0	450
3188	0	0	0	0	450
3189	0	0	0	0	450
3190	0	0	0	0	450
3191	0	0	0	0	450
3192	0	0	0	0	450
3193	0	0	0	0	450
3194	0	0	0	0	450
3195	0	0	0	0	450
3196	0	0	0	0	450
3197	0	0	0	0	450
3198	0	0	0	0	450
3199	0	0	0	0	450
3200	0	0	0	0	455
3201	0	0	0	0	460
3202	0	0	0	0	465
3203	0	0	0	0	470
3204	0	0	0	0	475
3205	0	0	0	0	480
3206	0	0	0	0	485
3207	0	0	0	0	490
3208	0	0	0	0	495
3209	0	0	0	0	500
3210	0	0	0	0	505
3211	0	0	0	0	510
3212	0	0	0	0	515
3213	0	0	0	0	520
3214	0	0	0	0	525
3215	0	0	0	0	530
3216	0	0	0	0	535
3217	0	0	0	0	540
3218	0	0	0	0	545
3219	0	0	0	0	550
3220	0	0	0	0	555
3221	0	0	0	0	560
3222	0	0	0	0	565
3223	0	0	0	0	570
3224	0	0	0	0	575
3225	0	0	0	0	575
3226	0	0	0	0	575
3227	0	0	0	0	575
3228	0	0	0	0	575
3229	0	0	0	0	575
3230	0	0	0	0	575
3231	0	0	0	0	575
3232	0	0	0	0	575
3233	0	0	0	0	575
3234	0	0	0	0	575
3235	0	0	0	0	575
3236	0	0	0	0	575
3237	0	0	0	0	575
3238	0	0	0	0	575
3239	0	0	0	0	575
3240	0	0	0	0	575
3241	0	0	0	0	575
3242	0	0	0	0	575
3243	0	0	0	0	575
3244	0	0	0	0	575
3245	0	0	0	0	575
3246	0	0	0	0	575
3247	0	0	0	0	575
3248	0	0	0	0	575
3249	0	0	0	0	575
3250	0	0	0	0	575
3251	0	0	0	0	575
3252	0	0	0	0	575
3253	0	0	0	0	575
3254	0	0	0	0	575
3255	0	0	0	0	575
3256	0	0	0	0	575
3257	0	0	0	0	575
3258	0	0	0	0	575
3259	0	0	0	0	575
3260	0	0	0	0	575
3261	0	0	0	0	575
3262	0	0	0	0	575
3263	0	0	0	0	575
3264	0	0	0	0	575
3265	0	0	0	0	608
3266	0	0	0	0	575
3267	0	0	0	0	575
3268	0	0	0	0	575
3269	0	0	0	0	575
3270	0	0	0	0	575
3271	0	0	0	0	575
3272	0	0	0	0	575
3273	0	0	0	0	575
3274	0	0	0	0	575
3275	0	0	0	0	575
3276	0	0	0	0	575
3277	0	0	0	0	575
3278	0	0	0	0	575
3279	0	0	0	0	575
3280	0	0	0	0	116
3281	0	0	0	0	450
3282	0	0	0	0	423
3283	0	0	0	0	450
3284	0	0	0	0	455
3285	0	0	0	0	460
3286	0	0	0	0	465
3287	0	0	0	0	470
3288	0	0	0	0	475
3289	0	0	0	0	480
3290	0	0	0	0	485
3291	0	0	0	0	490
3292	0	0	0	0	495
3293	0	0	0	0	500
3294	0	0	0	0	505
3295	0	0	0	0	510
3296	0	0	0	0	515
3297	0	0	0	0	761
3298	0	0	0	0	575
3299	0	0	0	0	575
3300	0	0	0	0	575
3301	0	0	0	0	575
3302	0	0	0	0	643
3303	0	0	0	0	575
3304	0	0	0	0	575
3305	0	0	0	0	575
3306	0	0	0	0	575
3307	0	0	0	0	575
3308	0	0	0	0	575
3309	0	0	0	0	575
3310	0	0	0	0	575
3311	0	0	0	0	575
3312	0	0	0	0	575
3313	0	0	0	0	575
3314	0	0	0	0	575
3315	0	0	0	0	575
3316	0	0	0	0	575
3317	0	0	0	0	575
3318	0	0	0	0	575
3319	0	0	0	0	575
3320	0	0	0	0	575
3321	0	0	0	0	575
3322	0	0	0	0	575
3323	0	0	0	0	575
3324	0	0	0	0	575
3325	0	0	0	0	575
3326	0	0	0	0	575
3327	0	0	0	0	575
3328	0	0	0	0	575
3329	0	0	0	0	575
3330	0	0	0	0	575
3331	0	0	0	0	575
3332	0	0	0	0	487
3333	0	0	0	0	492
3334	0	0	0	0	497
3335	0	0	0	0	502
3336	0	0	0	0	507
3337	0	0	0	0	512
3338	0	0	0	0	517
3339	0	0	0	0	522
3340	0	0	0	0	527
3341	0	0	0	0	532
3342	0	0	0	0	537
3343	0	0	0	0	542
3344	0	0	0	0	547
3345	0	0	0	0	163
3346	0	0	0	0	450
3347	0	0	0	0	455
3348	0	0	0	0	460
3349	0	0	0	0	465
3350	0	0	0	0	470
3351	0	0	0	0	475
3352	0	0	0	0	480
3353	0	0	0	0	485
3354	0	0	0	0	490
3355	0	0	0	0	495
3356	0	0	0	0	500
3357	0	0	0	0	505
3358	0	0	0	0	510
3359	0	0	0	0	515
3360	0	0	0	0	520
3361	0	0	0	0	525
3362	0	0	0	0	530
3363	0	0	0	0	535
3364	0	0	0	0	540
3365	0	0	0	0	545
3366	0	0	0	0	550
3367	0	0	0	0	555
3368	0	0	0	0	560
3369	0	0	0	0	565
3370	0	0	0	0	570
3371	0	0	0	0	575
3372	0	0	0	0	575
3373	0	0	0	0	575
3374	0	0	0	0	575
3375	0	0	0	0	575
3376	0	0	0	0	575
3377	0	0	0	0	575
3378	0	0	0	0	575
3379	0	0	0	0	575
3380	0	0	0	0	575
3381	0	0	0	0	575
3382	0	0	0	0	575
3383	0	0	0	0	575
3384	0	0	0	0	575
3385	0	0	0	0	575
3386	0	0	0	0	575
3387	0	0	0	0	575
3388	0	0	0	0	575
3389	0	0	0	0	575
3390	0	0	0	0	575
3391	0	0	0	0	575
3392	0	0	0	0	575
3393	0	0	0	0	575
3394	0	0	0	0	575
3395	0	0	0	0	575
3396	0	0	0	0	575
3397	0	0	0	0	575
3398	0	0	0	0	575
3399	0	0	0	0	575
3400	0	0	0	0	575
3401	0	0	0	0	575
3402	0	0	0	0	575
3403	0	0	0	0	575
3404	0	0	0	0	575
3405	0	0	0	0	575
3406	0	0	0	0	575
3407	0	0	0	0	575
3408	0	0	0	0	575
3409	0	0	0	0	575
3410	0	0	0	0	575
3411	0	0	0	0	575
3412	0	0	0	0	575
3413	0	0	0	0	575
3414	0	0	0	0	500
3415	0	0	0	0	505
3416	0	0	0	0	510
3417	0	0	0	0	515
3418	0	0	0	0	520
3419	0	0	0	0	525
3420	0	0	0	0	530
3421	0	0	0	0	535
3422	0	0	0	0	540
3423	0	0	0	0	545
3424	0	0	0	0	550
3425	0	0	0	0	555
3426	0	0	0	0	560
3427	0	0	0	0	565
3428	0	0	0	0	570
3429	0	0	0	0	575
3430	0	0	0	0	575
3431	0	0	0	0	575
3432	0	0	0	0	575
3433	0	0	0	0	575
3434	0	0	0	0	575
3435	0	0	0	0	575
3436	0	0	0	0	575
3437	0	0	0	0	575
3438	0	0	0	0	575
3439	0	0	0	0	575
3440	0	0	0	0	575
3441	0	0	0	0	575
3442	0	0	0	0	128
3443	0	0	0	0	450
3444	0	0	0	0	455
3445	0	0	0	0	460
3446	0	0	0	0	651
3447	0	0	0	0	575
3448	0	0	0	0	575
3449	0	0	0	0	575
3450	0	0	0	0	575
3451	0	0	0	0	575
3452	0	0	0	0	575
3453	0	0	0	0	575
3454	0	0	0	0	575
3455	0	0	0	0	575
3456	0	0	0	0	575
3457	0	0	0	0	575
3458	0	0	0	0	575
3459	0	0	0	0	575
3460	0	0	0	0	575
3461	0	0	0	0	575
3462	0	0	0	0	575
3463	0	0	0	0	575
3464	0	0	0	0	575
3465	0	0	0	0	575
3466	0	0	0	0	575
3467	0	0	0	0	781
3468	0	0	0	0	575
3469	0	0	0	0	575
3470	0	0	0	0	575
3471	0	0	0	0	575
3472	0	0	0	0	575
3473	0	0	0	0	575
3474	0	0	0	0	575
3475	0	0	0	0	575
3476	0	0	0	0	542
3477	0	0	0	0	753
3478	0	0	0	0	575
3479	0	0	0	0	114
3480	0	0	0	0	450
3481	0	0	0	0	455
3482	0	0	0	0	460
3483	0	0	0	0	465
3484	0	0	0	0	470
3485	0	0	0	0	475
3486	0	0	0	0	480
3487	0	0	0	0	485
3488	0	0	0	0	490
3489	0	0	0	0	495
3490	0	0	0	0	500
3491	0	0	0	0	505
3492	0	0	0	0	510
3493	0	0	0	0	515
3494	0	0	0	0	520
3495	0	0	0	0	525
3496	0	0	0	0	530
3497	0	0	0	0	535
3498	0	0	0	0	540
3499	0	0	0	0	545
3500	0	0	0	0	540
3501	0	0	0	0	535
3502	0	0	0	0	530
3503	0	0	0	0	525
3504	0	0	0	0	520
3505	0	0	0	0	515
3506	0	0	0	0	510
3507	0	0	0	0	505
3508	0	0	0	0	500
3509	0	0	0	0	495
3510	0	0	0	0	490
3511	0	0	0	0	485
3512	0	0	0	0	480
3513	0	0	0	0	475
3514	0	0	0	0	470
3515	0	0	0	0	465
3516	0	0	0	0	460
3517	0	0	0	0	455
3518	0	0	0	0	450
3519	0	0	0	0	450
3520	0	0	0	0	450
3521	0	0	0	0	450
3522	0	0	0	0	450
3523	0	0	0	0	450
3524	0	0	0	0	450
3525	0	0	0	0	450
3526	0	0	0	0	166
3527	0	0	0	0	450
3528	0	0	0	0	450
3529	0	0	0	0	450
3530	0	0	0	0	450
3531	0	0	0	0	450
3532	0	0	0	0	450
3533	0	0	0	0	312
3534	0	0	0	0	450
3535	0	0	0	0	450
3536	0	0	0	0	450
3537	0	0	0	0	450
3538	0	0	0	0	450
3539	0	0	0	0	450
3540	0	0	0	0	450
3541	0	0	0	0	450
3542	0	0	0	0	450
3543	0	0	0	0	450
3544	0	0	0	0	450
3545	0	0	0	0	450
3546	0	0	0	0	450
3547	0	0	0	0	450
3548	0	0	0	0	328
3549	0	0	0	0	450
3550	0	0	0	0	450
3551	0	0	0	0	450
3552	0	0	0	0	450
3553	0	0	0	0	450
3554	0	0	0	0	450
3555	0	0	0	0	450
3556	0	0	0	0	450
3557	0	0	0	0	450
3558	0	0	0	0	450
3559	0	0	0	0	450
3560	0	0	0	0	450
3561	0	0	0	0	450
3562	0	0	0	0	450
3563	0	0	0	0	349
3564	0	0	0	0	450
3565	0	0	0	0	450
3566	0	0	0	0	450
3567	0	0	0	0	450
3568	0	0	0	0	450
3569	0	0	0	0	450
3570	0	0	0	0	450
3571	0	0	0	0	450
3572	0	0	0	0	450
3573	0	0	0	0	450
3574	0	0	0	0	450
3575	0	0	0	0	450
3576	0	0	0	0	450
3577	0	0	0	0	450
3578	0	0	0	0	450
3579	0	0	0	0	450
3580	0	0	0	0	450
3581	0	0	0	0	450
3582	0	0	0	0	450
3583	0	0	0	0	450
3584	0	0	0	0	450
3585	0	0	0	0	450
3586	0	0	0	0	450
3587	0	0	0	0	450
3588	0	0	0	0	450
3589	0	0	0	0	450
3590	0	0	0	0	450
3591	0	0	0	0	450
3592	0	0	0	0	316
3593	0	0	0	0	450
3594	0	0	0	0	450
3595	0	0	0	0	450
3596	0	0	0	0	450
3597	0	0	0	0	450
3598	0	0	0	0	450
3599	0	0	0	0	450
3600	0	0	0	0	455
3601	0	0	0	0	460
3602	0	0	0	0	465
3603	0	0	0	0	470
3604	0	0	0	0	475
3605	0	0	0	0	480
3606	0	0	0	0	485
3607	0	0	0	0	490
3608	0	0	0	0	495
3609	0	0	0	0	500
3610	0	0	0	0	505
3611	0	0	0	0	510
3612	0	0	0	0	515
3613	0	0	0	0	520
3614	0	0	0	0	525
3615	0	0	0	0	530
3616	0	0	0	0	535
3617	0	0	0	0	540
3618	0	0	0	0	545
3619	0	0	0	0	550
3620	0	0	0	0	555
3621	0	0	0	0	560
3622	0	0	0	0	565
3623	0	0	0	0	570
3624	0	0	0	0	575
3625	0	0	0	0	575
3626	0	0	0	0	575
3627	0	0	0	0	575
3628	0	0	0	0	575
3629	0	0	0	0	575
3630	0	0	0	0	575
3631	0	0	0	0	575
3632	0	0	0	0	575
3633	0	0	0	0	575
3634	0	0	0	0	575
3635	0	0	0	0	575
3636	0	0	0	0	575
3637	0	0	0	0	575
3638	0	0	0	0	575
3639	0	0	0	0	575
3640	0	0	0	0	575
3641	0	0	0	0	575
3642	0	0	0	0	575
3643	0	0	0	0	575
3644	0	0	0	0	575
3645	0	0	0	0	575
3646	0	0	0	0	575
3647	0	0	0	0	575
3648	0	0	0	0	575
3649	0	0	0	0	591
3650	0	0	0	0	575
3651	0	0	0	0	575
3652	0	0	0	0	575
3653	0	0	0	0	575
3654	0	0	0	0	575
3655	0	0	0	0	575
3656	0	0	0	0	575
3657	0	0	0	0	575
3658	0	0	0	0	575
3659	0	0	0	0	575
3660	0	0	0	0	575
3661	0	0	0	0	575
3662	0	0	0	0	575
3663	0	0	0	0	575
3664	0	0	0	0	575
3665	0	0	0	0	575
3666	0	0	0	0	575
3667	0	0	0	0	575
3668	0	0	0	0	575
3669	0	0	0	0	575
3670	0	0	0	0	575
3671	0	0	0	0	575
3672	0	0	0	0	575
3673	0	0	0	0	575
3674	0	0	0	0	575
3675	0	0	0	0	575
3676	0	0	0	0	575
3677	0	0	0	0	575
3678	0	0	0	0	575
3679	0	0	0	0	575
3680	0	0	0	0	575
3681	0	0	0	0	575
3682	0	0	0	0	575
3683	0	0	0	0	575
3684	0	0	0	0	575
3685	0	0	0	0	575
3686	0	0	0	0	575
3687	0	0	0	0	575
3688	0	0	0	0	575
3689	0	0	0	0	575
3690	0	0	0	0	575
3691	0	0	0	0	575
3692	0	0	0	0	575
3693	0	0	0	0	575
3694	0	0	0	0	575
3695	0	0	0	0	575
3696	0	0	0	0	575
3697	0	0	0	0	575
3698	0	0	0	0	575
3699	0	0	0	0	575
3700	0	0	0	0	575
3701	0	0	0	0	575
3702	0	0	0	0	575
3703	0	0	0	0	575
3704	0	0	0	0	575
3705	0	0	0	0	575
3706	0	0	0	0	575
3707	0	0	0	0	575
3708	0	0	0	0	575
3709	0	0	0	0	575
3710	0	0	0	0	575
3711	0	0	0	0	575
3712	0	0	0	0	575
3713	0	0	0	0	575
3714	0	0	0	0	575
3715	0	0	0	0	575
3716	0	0	0	0	575
3717	0	0	0	0	575
3718	0	0	0	0	575
3719	0	0	0	0	575
3720	0	0	0	0	575
3721	0	0	0	0	575
3722	0	0	0	0	575
3723	0	0	0	0	575
3724	0	0	0	0	575
3725	0	0	0	0	575
3726	0	0	0	0	575
3727	0	0	0	0	575
3728	0	0	0	0	575
3729	0	0	0	0	575
3730	0	0	0	0	575
3731	0	0	0	0	575
3732	0	0	0	0	575
3733	0	0	0	0	575
3734	0	0	0	0	575
3735	0	0	0	0	575
3736	0	0	0	0	575
3737	0	0	0	0	575
3738	0	0	0	0	575
3739	0	0	0	0	575
3740	0	0	0	0	575
3741	0	0	0	0	575
3742	0	0	0	0	575
3743	0	0	0	0	575
3744	0	0	0	0	575
3745	0	0	0	0	575
3746	0	0	0	0	575
3747	0	0	0	0	575
3748	0	0	0	0	575
3749	0	0	0	0	575
3750	0	0	0	0	575
3751	0	0	0	0	575
3752	0	0	0	0	575
3753	0	0	0	0	575
3754	0	0	0	0	575
3755	0	0	0	0	575
3756	0	0	0	0	575
3757	0	0	0	0	527
3758	0	0	0	0	532
3759	0	0	0	0	537
3760	0	0	0	0	542
3761	0	0	0	0	547
3762	0	0	0	0	552
3763	0	0	0	0	557
3764	0	0	0	0	562
3765	0	0	0	0	631
3766	0	0	0	0	575
3767	0	0	0	0	575
3768	0	0	0	0	575
3769	0	0	0	0	204
3770	0	0	0	0	450
3771	0	0	0	0	455
3772	0	0	0	0	460
3773	0	0	0	0	465
3774	0	0	0	0	470
3775	0	0	0	0	475
3776	0	0	0	0	480
3777	0	0	0	0	485
3778	0	0	0	0	490
3779	0	0	0	0	495
3780	0	0	0	0	500
3781	0	0	0	0	505
3782	0	0	0	0	510
3783	0	0	0	0	515
3784	0	0	0	0	520
3785	0	0	0	0	525
3786	0	0	0	0	530
3787	0	0	0	0	535
3788	0	0	0	0	540
3789	0	0	0	0	545
3790	0	0	0	0	550
3791	0	0	0	0	555
3792	0	0	0	0	560
3793	0	0	0	0	565
3794	0	0	0	0	570
3795	0	0	0	0	575
3796	0	0	0	0	575
3797	0	0	0	0	575
3798	0	0	0	0	575
3799	0	0	0	0	575
3800	0	0	0	0	570
3801	0	0	0	0	565
3802	0	0	0	0	560
3803	0	0	0	0	555
3804	0	0	0	0	550
3805	0	0	0	0	327
3806	0	0	0	0	450
3807	0	0	0	0	450
3808	0	0	0	0	450
3809	0	0	0	0	450
3810	0	0	0	0	450
3811	0	0	0	0	450
3812	0	0	0	0	450
3813	0	0	0	0	450
3814	0	0	0	0	450
3815	0	0	0	0	450
3816	0	0	0	0	450
3817	0	0	0	0	450
3818	0	0	0	0	450
3819	0	0	0	0	450
3820	0	0	0	0	450
3821	0	0	0	0	450
3822	0	0	0	0	450
3823	0	0	0	0	450
3824	0	0	0	0	782
3825	0	0	0	0	575
3826	0	0	0	0	570
3827	0	0	0	0	229
3828	0	0	0	0	450
3829	0	0	0	0	450
3830	0	0	0	0	450
3831	0	0	0	0	450
3832	0	0	0	0	450
3833	0	0	0	0	450
3834	0	0	0	0	450
3835	0	0	0	0	439
3836	0	0	0	0	450
3837	0	0	0	0	450
3838	0	0	0	0	450
3839	0	0	0	0	770
3840	0	0	0	0	575
3841	0	0	0	0	302
3842	0	0	0	0	450
3843	0	0	0	0	450
3844	0	0	0	0	450
3845	0	0	0	0	450
3846	0	0	0	0	450
3847	0	0	0	0	450
3848	0	0	0	0	450
3849	0	0	0	0	323
3850	0	0	0	0	450
3851	0	0	0	0	450
3852	0	0	0	0	450
3853	0	0	0	0	450
3854	0	0	0	0	450
3855	0	0	0	0	450
3856	0	0	0	0	656
3857	0	0	0	0	575
3858	0	0	0	0	570
3859	0	0	0	0	565
3860	0	0	0	0	560
3861	0	0	0	0	555
3862	0	0	0	0	550
3863	0	0	0	0	545
3864	0	0	0	0	540
3865	0	0	0	0	551
3866	0	0	0	0	546
3867	0	0	0	0	541
3868	0	0	0	0	536
3869	0	0	0	0	531
3870	0	0	0	0	526
3871	0	0	0	0	521
3872	0	0	0	0	516
3873	0	0	0	0	511
3874	0	0	0	0	506
3875	0	0	0	0	501
3876	0	0	0	0	496
3877	0	0	0	0	491
3878	0	0	0	0	486
3879	0	0	0	0	481
3880	0	0	0	0	476
3881	0	0	0	0	471
3882	0	0	0	0	466
3883	0	0	0	0	461
3884	0	0	0	0	456
3885	0	0	0	0	451
3886	0	0	0	0	450
3887	0	0	0	0	450
3888	0	0	0	0	450
3889	0	0	0	0	450
3890	0	0	0	0	450
3891	0	0	0	0	239
3892	0	0	0	0	450
3893	0	0	0	0	450
3894	0	0	0	0	450
3895	0	0	0	0	450
3896	0	0	0	0	450
3897	0	0	0	0	450
3898	0	0	0	0	450
3899	0	0	0	0	450
3900	0	0	0	0	455
3901	0	0	0	0	460
3902	0	0	0	0	465
3903	0	0	0	0	470
3904	0	0	0	0	475
3905	0	0	0	0	480
3906	0	0	0	0	485
3907	0	0	0	0	490
3908	0	0	0	0	495
3909	0	0	0	0	500
3910	0	0	0	0	505
3911	0	0	0	0	510
3912	0	0	0	0	515
3913	0	0	0	0	520
3914	0	0	0	0	525
3915	0	0	0	0	530
3916	0	0	0	0	535
3917	0	0	0	0	540
3918	0	0	0	0	545
3919	0	0	0	0	550
3920	0	0	0	0	555
3921	0	0	0	0	560
3922	0	0	0	0	565
3923	0	0	0	0	570
3924	0	0	0	0	575
3925	0	0	0	0	575
3926	0	0	0	0	575
3927	0	0	0	0	575
3928	0	0	0	0	575
3929	0	0	0	0	575
3930	0	0	0	0	575
3931	0	0	0	0	575
3932	0	0	0	0	575
3933	0	0	0	0	575
3934	0	0	0	0	575
3935	0	0	0	0	575
3936	0	0	0	0	575
3937	0	0	0	0	575
3938	0	0	0	0	575
3939	0	0	0	0	575
3940	0	0	0	0	575
3941	0	0	0	0	575
3942	0	0	0	0	575
3943	0	0	0	0	575
3944	0	0	0	0	575
3945	0	0	0	0	575
3946	0	0	0	0	575
3947	0	0	0	0	575
3948	0	0	0	0	575
3949	0	0	0	0	575
3950	0	0	0	0	575
3951	0	0	0	0	575
3952	0	0	0	0	575
3953	0	0	0	0	575
3954	0	0	0	0	575
3955	0	0	0	0	575
3956	0	0	0	0	575
3957	0	0	0	0	575
3958	0	0	0	0	575
3959	0	0	0	0	575
3960	0	0	0	0	575
3961	0	0	0	0	575
3962	0	0	0	0	575
3963	0	0	0	0	575
3964	0	0	0	0	575
3965	0	0	0	0	575
3966	0	0	0	0	575
3967	0	0	0	0	575
3968	0	0	0	0	575
3969	0	0	0	0	575
3970	0	0	0	0	575
3971	0	0	0	0	575
3972	0	0	0	0	575
3973	0	0	0	0	575
3974	0	0	0	0	575
3975	0	0	0	0	575
3976	0	0	0	0	575
3977	0	0	0	0	575
3978	0	0	0	0	575
3979	0	0	0	0	575
3980	0	0	0	0	575
3981	0	0	0	0	575
3982	0	0	0	0	575
3983	0	0	0	0	575
3984	0	0	0	0	575
3985	0	0	0	0	575
3986	0	0	0	0	575
3987	0	0	0	0	575
3988	0	0	0	0	575
3989	0	0	0	0	575
3990	0	0	0	0	575
3991	0	0	0	0	194
3992	0	0	0	0	450
3993	0	0	0	0	455
3994	0	0	0	0	460
3995	0	0	0	0	465
3996	0	0	0	0	470
3997	0	0	0	0	475
3998	0	0	0	0	480
3999	0	0	0	0	485
4000	0	0	0	0	480
4001	0	0	0	0	475
4002	0	0	0	0	470
4003	0	0	0	0	465
4004	0	0	0	0	460
4005	0	0	0	0	455
4006	0	0	0	0	450
4007	0	0	0	0	450
4008	0	0	0	0	450
4009	0	0	0	0	450
4010	0	0	0	0	450
4011	0	0	0	0	450
4012	0	0	0	0	450
4013	0	0	0	0	450
4014	0	0	0	0	450
4015	0	0	0	0	450
4016	0	0	0	0	450
4017	0	0	0	0	450
4018	0	0	0	0	450
4019	0	0	0	0	450
4020	0	0	0	0	450
4021	0	0	0	0	450
4022	0	0	0	0	450
4023	0	0	0	0	450
4024	0	0	0	0	450
4025	0	0	0	0	450
4026	0	0	0	0	450
4027	0	0	0	0	450
4028	0	0	0	0	450
4029	0	0	0	0	450
4030	0	0	0	0	450
4031	0	0	0	0	450
4032	0	0	0	0	450
4033	0	0	0	0	450
4034	0	0	0	0	450
4035	0	0	0	0	450
4036	0	0	0	0	450
4037	0	0	0	0	450
4038	0	0	0	0	450
4039	0	0	0	0	450
4040	0	0	0	0	450
4041	0	0	0	0	450
4042	0	0	0	0	450
4043	0	0	0	0	450
4044	0	0	0	0	450
4045	0	0	0	0	450
4046	0	0	0	0	450
4047	0	0	0	0	450
4048	0	0	0	0	450
4049	0	0	0	0	450
4050	0	0	0	0	450
4051	0	0	0	0	450
4052	0	0	0	0	450
4053	0	0	0	0	450
4054	0	0	0	0	450
4055	0	0	0	0	450
4056	0	0	0	0	450
4057	0	0	0	0	450
4058	0	0	0	0	450
4059	0	0	0	0	450
4060	0	0	0	0	450
4061	0	0	0	0	450
4062	0	0	0	0	450
4063	0	0	0	0	450
4064	0	0	0	0	450
4065	0	0	0	0	450
4066	0	0	0	0	450
4067	0	0	0	0	450
4068	0	0	0	0	450
4069	0	0	0	0	450
4070	0	0	0	0	450
4071	0	0	0	0	450
4072	0	0	0	0	450
4073	0	0	0	0	450
4074	0	0	0	0	450
4075	0	0	0	0	450
4076	0	0	0	0	450
4077	0	0	0	0	450
4078	0	0	0	0	450
4079	0	0	0	0	450
4080	0	0	0	0	381
4081	0	0	0	0	450
4082	0	0	0	0	450
4083	0	0	0	0	450
4084	0	0	0	0	450
4085	0	0	0	0	450
4086	0	0	0	0	450
4087	0	0	0	0	450
4088	0	0	0	0	450
4089	0	0	0	0	450
4090	0	0	0	0	450
4091	0	0	0	0	651
4092	0	0	0	0	166
4093	0	0	0	0	450
4094	0	0	0	0	450
4095	0	0	0	0	450
4096	0	0	0	0	450
4097	0	0	0	0	450
4098	0	0	0	0	450
4099	0	0	0	0	668
4100	0	0	0	0	575
4101	0	0	0	0	570
4102	0	0	0	0	565
4103	0	0	0	0	560
4104	0	0	0	0	555
4105	0	0	0	0	782
4106	0	0	0	0	575
4107	0	0	0	0	570
4108	0	0	0	0	565
4109	0	0	0	0	292
4110	0	0	0	0	450
4111	0	0	0	0	450
4112	0	0	0	0	450
4113	0	0	0	0	450
4114	0	0	0	0	450
4115	0	0	0	0	450
4116	0	0	0	0	450
4117	0	0	0	0	450
4118	0	0	0	0	450
4119	0	0	0	0	450
4120	0	0	0	0	450
4121	0	0	0	0	450
4122	0	0	0	0	450
4123	0	0	0	0	450
4124	0	0	0	0	450
4125	0	0	0	0	450
4126	0	0	0	0	450
4127	0	0	0	0	450
4128	0	0	0	0	450
4129	0	0	0	0	450
4130	0	0	0	0	450
4131	0	0	0	0	450
4132	0	0	0	0	450
4133	0	0	0	0	450
4134	0	0	0	0	450
4135	0	0	0	0	450
4136	0	0	0	0	450
4137	0	0	0	0	450
4138	0	0	0	0	119
4139	0	0	0	0	450
4140	0	0	0	0	450
4141	0	0	0	0	450
4142	0	0	0	0	450
4143	0	0	0	0	450
4144	0	0	0	0	450
4145	0	0	0	0	450
4146	0	0	0	0	450
4147	0	0	0	0	450
4148	0	0	0	0	450
4149	0	0	0	0	450
4150	0	0	0	0	450
4151	0	0	0	0	450
4152	0	0	0	0	450
4153	0	0	0	0	450
4154	0	0	0	0	450
4155	0	0	0	0	450
4156	0	0	0	0	450
4157	0	0	0	0	450
4158	0	0	0	0	450
4159	0	0	0	0	450
4160	0	0	0	0	450
4161	0	0	0	0	450
4162	0	0	0	0	450
4163	0	0	0	0	550
4164	0	0	0	0	545
4165	0	0	0	0	540
4166	0	0	0	0	535
4167	0	0	0	0	530
4168	0	0	0	0	525
4169	0	0	0	0	520
4170	0	0	0	0	515
4171	0	0	0	0	510
4172	0	0	0	0	505
4173	0	0	0	0	500
4174	0	0	0	0	495
4175	0	0	0	0	490
4176	0	0	0	0	485
4177	0	0	0	0	480
4178	0	0	0	0	475
4179	0	0	0	0	470
4180	0	0	0	0	598
4181	0	0	0	0	575
4182	0	0	0	0	570
4183	0	0	0	0	565
4184	0	0	0	0	560
4185	0	0	0	0	555
4186	0	0	0	0	550
4187	0	0	0	0	545
4188	0	0	0	0	540
4189	0	0	0	0	535
4190	0	0	0	0	530
4191	0	0	0	0	525
4192	0	0	0	0	520
4193	0	0	0	0	515
4194	0	0	0	0	510
4195	0	0	0	0	505
4196	0	0	0	0	500
4197	0	0	0	0	495
4198	0	0	0	0	490
4199	0	0	0	0	485
4200	0	0	0	0	490
4201	0	0	0	0	495
4202	0	0	0	0	500
4203	0	0	0	0	505
4204	0	0	0	0	510
4205	0	0	0	0	515
4206	0	0	0	0	520
4207	0	0	0	0	525
4208	0	0	0	0	530
4209	0	0	0	0	535
4210	0	0	0	0	540
4211	0	0	0	0	545
4212	0	0	0	0	550
4213	0	0	0	0	555
4214	0	0	0	0	560
4215	0	0	0	0	565
4216	0	0	0	0	570
4217	0	0	0	0	575
4218	0	0	0	0	575
4219	0	0	0	0	575
4220	0	0	0	0	575
4221	0	0	0	0	575
4222	0	0	0	0	575
4223	0	0	0	0	575
4224	0	0	0	0	575
4225	0	0	0	0	575
4226	0	0	0	0	575
4227	0	0	0	0	575
4228	0	0	0	0	575
4229	0	0	0	0	575
4230	0	0	0	0	575
4231	0	0	0	0	575
4232	0	0	0	0	575
4233	0	0	0	0	575
4234	0	0	0	0	575
4235	0	0	0	0	575
4236	0	0	0	0	575
4237	0	0	0	0	575
4238	0	0	0	0	575
4239	0	0	0	0	575
4240	0	0	0	0	575
4241	0	0	0	0	575
4242	0	0	0	0	575
4243	0	0	0	0	575
4244	0	0	0	0	575
4245	0	0	0	0	575
4246	0	0	0	0	575
4247	0	0	0	0	575
4248	0	0	0	0	575
4249	0	0	0	0	575
4250	0	0	0	0	575
4251	0	0	0	0	575
4252	0	0	0	0	546
4253	0	0	0	0	551
4254	0	0	0	0	556
4255	0	0	0	0	561
4256	0	0	0	0	566
4257	0	0	0	0	571
4258	0	0	0	0	575
4259	0	0	0	0	575
4260	0	0	0	0	575
4261	0	0	0	0	575
4262	0	0	0	0	575
4263	0	0	0	0	575
4264	0	0	0	0	575
4265	0	0	0	0	575
4266	0	0	0	0	575
4267	0	0	0	0	575
4268	0	0	0	0	575
4269	0	0	0	0	575
4270	0	0	0	0	575
4271	0	0	0	0	575
4272	0	0	0	0	575
4273	0	0	0	0	575
4274	0	0	0	0	575
4275	0	0	0	0	575
4276	0	0	0	0	575
4277	0	0	0	0	575
4278	0	0	0	0	575
4279	0	0	0	0	575
4280	0	0	0	0	575
4281	0	0	0	0	575
4282	0	0	0	0	575
4283	0	0	0	0	575
4284	0	0	0	0	575
4285	0	0	0	0	575
4286	0	0	0	0	575
4287	0	0	0	0	575
4288	0	0	0	0	575
4289	0	0	0	0	575
4290	0	0	0	0	575
4291	0	0	0	0	575
4292	0	0	0	0	575
4293	0	0	0	0	575
4294	0	0	0	0	575
4295	0	0	0	0	575
4296	0	0	0	0	575
4297	0	0	0	0	575
4298	0	0	0	0	575
4299	0	0	0	0	575
4300	0	0	0	0	575
4301	0	0	0	0	575
4302	0	0	0	0	575
4303	0	0	0	0	575
4304	0	0	0	0	575
4305	0	0	0	0	575
4306	0	0	0	0	575
4307	0	0	0	0	575
4308	0	0	0	0	575
4309	0	0	0	0	575
4310	0	0	0	0	575
4311	0	0	0	0	669
4312	0	0	0	0	575
4313	0	0	0	0	575
4314	0	0	0	0	575
4315	0	0	0	0	575
4316	0	0	0	0	575
4317	0	0	0	0	575
4318	0	0	0	0	103
4319	0	0	0	0	450
4320	0	0	0	0	455
4321	0	0	0	0	460
4322	0	0	0	0	465
4323	0	0	0	0	470
4324	0	0	0	0	475
4325	0	0	0	0	480
4326	0	0	0	0	485
4327	0	0	0	0	490
4328	0	0	0	0	495
4329	0	0	0	0	500
4330	0	0	0	0	505
4331	0	0	0	0	510
4332	0	0	0	0	515
4333	0	0	0	0	520
4334	0	0	0	0	525
4335	0	0	0	0	530
4336	0	0	0	0	535
4337	0	0	0	0	540
4338	0	0	0	0	545
4339	0	0	0	0	550
4340	0	0	0	0	555
4341	0	0	0	0	560
4342	0	0	0	0	565
4343	0	0	0	0	570
4344	0	0	0	0	144
4345	0	0	0	0	450
4346	0	0	0	0	455
4347	0	0	0	0	460
4348	0	0	0	0	465
4349	0	0	0	0	470
4350	0	0	0	0	475
4351	0	0	0	0	480
4352	0	0	0	0	485
4353	0	0	0	0	490
4354	0	0	0	0	495
4355	0	0	0	0	500
4356	0	0	0	0	505
4357	0	0	0	0	510
4358	0	0	0	0	515
4359	0	0	0	0	520
4360	0	0	0	0	525
4361	0	0	0	0	530
4362	0	0	0	0	535
4363	0	0	0	0	540
4364	0	0	0	0	545
4365	0	0	0	0	550
4366	0	0	0	0	555
4367	0	0	0	0	560
4368	0	0	0	0	565
4369	0	0	0	0	570
4370	0	0	0	0	575
4371	0	0	0	0	575
4372	0	0	0	0	575
4373	0	0	0	0	575
4374	0	0	0	0	575
4375	0	0	0	0	575
4376	0	0	0	0	575
4377	0	0	0	0	575
4378	0	0	0	0	575
4379	0	0	0	0	575
4380	0	0	0	0	575
4381	0	0	0	0	575
4382	0	0	0	0	575
4383	0	0	0	0	153
4384	0	0	0	0	450
4385	0	0	0	0	455
4386	0	0	0	0	460
4387	0	0	0	0	465
4388	0	0	0	0	470
4389	0	0	0	0	475
4390	0	0	0	0	480
4391	0	0	0	0	485
4392	0	0	0	0	490
4393	0	0	0	0	495
4394	0	0	0	0	500
4395	0	0	0	0	505
4396	0	0	0	0	510
4397	0	0	0	0	738
4398	0	0	0	0	575
4399	0	0	0	0	575
4400	0	0	0	0	570
4401	0	0	0	0	565
4402	0	0	0	0	560
4403	0	0	0	0	555
4404	0	0	0	0	550
4405	0	0	0	0	545
4406	0	0	0	0	540
4407	0	0	0	0	535
4408	0	0	0	0	530
4409	0	0	0	0	525
4410	0	0	0	0	520
4411	0	0	0	0	515
4412	0	0	0	0	510
4413	0	0	0	0	505
4414	0	0	0	0	500
4415	0	0	0	0	495
4416	0	0	0	0	490
4417	0	0	0	0	485
4418	0	0	0	0	480
4419	0	0	0	0	475
4420	0	0	0	0	470
4421	0	0	0	0	465
4422	0	0	0	0	460
4423	0	0	0	0	455
4424	0	0	0	0	450
4425	0	0	0	0	450
4426	0	0	0	0	450
4427	0	0	0	0	450
4428	0	0	0	0	450
4429	0	0	0	0	450
4430	0	0	0	0	450
4431	0	0	0	0	450
4432	0	0	0	0	450
4433	0	0	0	0	450
4434	0	0	0	0	450
4435	0	0	0	0	450
4436	0	0	0	0	450
4437	0	0	0	0	450
4438	0	0	0	0	450
4439	0	0	0	0	450
4440	0	0	0	0	450
4441	0	0	0	0	450
4442	0	0	0	0	450
4443	0	0	0	0	450
4444	0	0	0	0	450
4445	0	0	0	0	450
4446	0	0	0	0	450
4447	0	0	0	0	450
4448	0	0	0	0	450
4449	0	0	0	0	450
4450	0	0	0	0	290
4451	0	0	0	0	450
4452	0	0	0	0	450
4453	0	0	0	0	450
4454	0	0	0	0	450
4455	0	0	0	0	450
4456	0	0	0	0	450
4457	0	0	0	0	450
4458	0	0	0	0	450
4459	0	0	0	0	450
4460	0	0	0	0	450
4461	0	0	0	0	450
4462	0	0	0	0	450
4463	0	0	0	0	450
4464	0	0	0	0	450
4465	0	0	0	0	450
4466	0	0	0	0	450
4467	0	0	0	0	450
4468	0	0	0	0	450
4469	0	0	0	0	450
4470	0	0	0	0	450
4471	0	0	0	0	450
4472	0	0	0	0	450
4473	0	0	0	0	462
4474	0	0	0	0	457
4475	0	0	0	0	452
4476	0	0	0	0	450
4477	0	0	0	0	662
4478	0	0	0	0	575
4479	0	0	0	0	570
4480	0	0	0	0	565
4481	0	0	0	0	560
4482	0	0	0	0	589
4483	0	0	0	0	431
4484	0	0	0	0	450
4485	0	0	0	0	450
4486	0	0	0	0	450
4487	0	0	0	0	450
4488	0	0	0	0	450
4489	0	0	0	0	450
4490	0	0	0	0	450
4491	0	0	0	0	450
4492	0	0	0	0	450
4493	0	0	0	0	450
4494	0	0	0	0	450
4495	0	0	0	0	450
4496	0	0	0	0	450
4497	0	0	0	0	450
4498	0	0	0	0	450
4499	0	0	0	0	450
4500	0	0	0	0	450
4501	0	0	0	0	450
4502	0	0	0	0	450
4503	0	0	0	0	450
4504	0	0	0	0	450
4505	0	0	0	0	450
4506	0	0	0	0	450
4507	0	0	0	0	450
4508	0	0	0	0	450
4509	0	0	0	0	450
4510	0	0	0	0	450
4511	0	0	0	0	450
4512	0	0	0	0	450
4513	0	0	0	0	450
4514	0	0	0	0	450
4515	0	0	0	0	450
4516	0	0	0	0	450
4517	0	0	0	0	450
4518	0	0	0	0	450
4519	0	0	0	0	450
4520	0	0	0	0	450
4521	0	0	0	0	450
4522	0	0	0	0	450
4523	0	0	0	0	450
4524	0	0	0	0	450
4525	0	0	0	0	176
4526	0	0	0	0	450
4527	0	0	0	0	450
4528	0	0	0	0	450
4529	0	0	0	0	450
4530	0	0	0	0	450
4531	0	0	0	0	450
4532	0	0	0	0	450
4533	0	0	0	0	450
4534	0	0	0	0	450
4535	0	0	0	0	450
4536	0	0	0	0	450
4537	0	0	0	0	450
4538	0	0	0	0	450
4539	0	0	0	0	450
4540	0	0	0	0	450
4541	0	0	0	0	450
4542	0	0	0	0	450
4543	0	0	0	0	450
4544	0	0	0	0	450
4545	0	0	0	0	450
4546	0	0	0	0	450
4547	0	0	0	0	450
4548	0	0	0	0	395
4549	0	0	0	0	450
4550	0	0	0	0	450
4551	0	0	0	0	450
4552	0	0	0	0	450
4553	0	0	0	0	450
4554	0	0	0	0	450
4555	0	0	0	0	450
4556	0	0	0	0	450
4557	0	0	0	0	450
4558	0	0	0	0	450
4559	0	0	0	0	450
4560	0	0	0	0	450
4561	0	0	0	0	450
4562	0	0	0	0	450
4563	0	0	0	0	450
4564	0	0	0	0	450
4565	0	0	0	0	450
4566	0	0	0	0	450
4567	0	0	0	0	450
4568	0	0	0	0	450
4569	0	0	0	0	450
4570	0	0	0	0	450
4571	0	0	0	0	450
4572	0	0	0	0	450
4573	0	0	0	0	450
4574	0	0	0	0	450
4575	0	0	0	0	450
4576	0	0	0	0	450
4577	0	0	0	0	450
4578	0	0	0	0	450
4579	0	0	0	0	450
4580	0	0	0	0	450
4581	0	0	0	0	603
4582	0	0	0	0	575
4583	0	0	0	0	570
4584	0	0	0	0	565
4585	0	0	0	0	560
4586	0	0	0	0	555
4587	0	0	0	0	550
4588	0	0	0	0	545
4589	0	0	0	0	540
4590	0	0	0	0	535
4591	0	0	0	0	530
4592	0	0	0	0	525
4593	0	0	0	0	520
4594	0	0	0	0	515
4595	0	0	0	0	510
4596	0	0	0	0	741
4597	0	0	0	0	575
4598	0	0	0	0	570
4599	0	0	0	0	565
4600	0	0	0	0	570
4601	0	0	0	0	575
4602	0	0	0	0	575
4603	0	0	0	0	575
4604	0	0	0	0	575
4605	0	0	0	0	686
4606	0	0	0	0	575
4607	0	0	0	0	575
4608	0	0	0	0	575
4609	0	0	0	0	575
4610	0	0	0	0	575
4611	0	0	0	0	539
4612	0	0	0	0	544
4613	0	0	0	0	549
4614	0	0	0	0	554
4615	0	0	0	0	559
4616	0	0	0	0	564
4617	0	0	0	0	569
4618	0	0	0	0	574
4619	0	0	0	0	575
4620	0	0	0	0	575
4621	0	0	0	0	575
4622	0	0	0	0	575
4623	0	0	0	0	575
4624	0	0	0	0	575
4625	0	0	0	0	575
4626	0	0	0	0	575
4627	0	0	0	0	575
4628	0	0	0	0	575
4629	0	0	0	0	575
4630	0	0	0	0	575
4631	0	0	0	0	575
4632	0	0	0	0	575
4633	0	0	0	0	575
4634	0	0	0	0	575
4635	0	0	0	0	575
4636	0	0	0	0	575
4637	0	0	0	0	575
4638	0	0	0	0	575
4639	0	0	0	0	575
4640	0	0	0	0	575
4641	0	0	0	0	575
4642	0	0	0	0	575
4643	0	0	0	0	575
4644	0	0	0	0	575
4645	0	0	0	0	575
4646	0	0	0	0	575
4647	0	0	0	0	575
4648	0	0	0	0	575
4649	0	0	0	0	575
4650	0	0	0	0	575
4651	0	0	0	0	575
4652	0	0	0	0	575
4653	0	0	0	0	575
4654	0	0	0	0	575
4655	0	0	0	0	575
4656	0	0	0	0	575
4657	0	0	0	0	575
4658	0	0	0	0	349
4659	0	0	0	0	450
4660	0	0	0	0	455
4661	0	0	0	0	460
4662	0	0	0	0	465
4663	0	0	0	0	470
4664	0	0	0	0	475
4665	0	0	0	0	480
4666	0	0	0	0	485
4667	0	0	0	0	490
4668	0	0	0	0	126
4669	0	0	0	0	518
4670	0	0	0	0	523
4671	0	0	0	0	528
4672	0	0	0	0	533
4673	0	0	0	0	538
4674	0	0	0	0	543
4675	0	0	0	0	548
4676	0	0	0	0	553
4677	0	0	0	0	558
4678	0	0	0	0	563
4679	0	0	0	0	568
4680	0	0	0	0	573
4681	0	0	0	0	575
4682	0	0	0	0	575
4683	0	0	0	0	575
4684	0	0	0	0	575
4685	0	0	0	0	575
4686	0	0	0	0	575
4687	0	0	0	0	575
4688	0	0	0	0	575
4689	0	0	0	0	575
4690	0	0	0	0	385
4691	0	0	0	0	450
4692	0	0	0	0	455
4693	0	0	0	0	460
4694	0	0	0	0	465
4695	0	0	0	0	470
4696	0	0	0	0	475
4697	0	0	0	0	480
4698	0	0	0	0	485
4699	0	0	0	0	490
4700	0	0	0	0	495
4701	0	0	0	0	500
4702	0	0	0	0	505
4703	0	0	0	0	510
4704	0	0	0	0	515
4705	0	0	0	0	520
4706	0	0	0	0	525
4707	0	0	0	0	530
4708	0	0	0	0	535
4709	0	0	0	0	540
4710	0	0	0	0	545
4711	0	0	0	0	550
4712	0	0	0	0	555
4713	0	0	0	0	560
4714	0	0	0	0	248
4715	0	0	0	0	450
4716	0	0	0	0	455
4717	0	0	0	0	460
4718	0	0	0	0	465
4719	0	0	0	0	470
4720	0	0	0	0	475
4721	0	0	0	0	480
4722	0	0	0	0	485
4723	0	0	0	0	490
4724	0	0	0	0	495
4725	0	0	0	0	500
4726	0	0	0	0	505
4727	0	0	0	0	510
4728	0	0	0	0	515
4729	0	0	0	0	520
4730	0	0	0	0	525
4731	0	0	0	0	530
4732	0	0	0	0	535
4733	0	0	0	0	540
4734	0	0	0	0	545
4735	0	0	0	0	550
4736	0	0	0	0	555
4737	0	0	0	0	560
4738	0	0	0	0	565
4739	0	0	0	0	570
4740	0	0	0	0	575
4741	0	0	0	0	575
4742	0	0	0	0	575
4743	0	0	0	0	575
4744	0	0	0	0	575
4745	0	0	0	0	575
4746	0	0	0	0	575
4747	0	0	0	0	575
4748	0	0	0	0	575
4749	0	0	0	0	575
4750	0	0	0	0	575
4751	0	0	0	0	575
4752	0	0	0	0	575
4753	0	0	0	0	575
4754	0	0	0	0	575
4755	0	0	0	0	575
4756	0	0	0	0	575
4757	0	0	0	0	575
4758	0	0	0	0	575
4759	0	0	0	0	575
4760	0	0	0	0	575
4761	0	0	0	0	575
4762	0	0	0	0	575
4763	0	0	0	0	575
4764	0	0	0	0	575
4765	0	0	0	0	575
4766	0	0	0	0	575
4767	0	0	0	0	575
4768	0	0	0	0	575
4769	0	0	0	0	575
4770	0	0	0	0	575
4771	0	0	0	0	575
4772	0	0	0	0	575
4773	0	0	0	0	575
4774	0	0	0	0	575
4775	0	0	0	0	575
4776	0	0	0	0	575
4777	0	0	0	0	575
4778	0	0	0	0	575
4779	0	0	0	0	575
4780	0	0	0	0	575
4781	0	0	0	0	575
4782	0	0	0	0	575
4783	0	0	0	0	575
4784	0	0	0	0	575
4785	0	0	0	0	575
4786	0	0	0	0	575
4787	0	0	0	0	377
4788	0	0	0	0	450
4789	0	0	0	0	455
4790	0	0	0	0	460
4791	0	0	0	0	465
4792	0	0	0	0	470
4793	0	0	0	0	475
4794	0	0	0	0	480
4795	0	0	0	0	485
4796	0	0	0	0	490
4797	0	0	0	0	495
4798	0	0	0	0	500
4799	0	0	0	0	505
4800	0	0	0	0	510
4801	0	0	0	0	515
4802	0	0	0	0	520
4803	0	0	0	0	525
4804	0	0	0	0	530
4805	0	0	0	0	535
4806	0	0	0	0	540
4807	0	0	0	0	610
4808	0	0	0	0	575
4809	0	0	0	0	575
4810	0	0	0	0	575
4811	0	0	0	0	575
4812	0	0	0	0	575
4813	0	0	0	0	575
4814	0	0	0	0	575
4815	0	0	0	0	575
4816	0	0	0	0	575
4817	0	0	0	0	575
4818	0	0	0	0	575
4819	0	0	0	0	575
4820	0	0	0	0	575
4821	0	0	0	0	575
4822	0	0	0	0	575
4823	0	0	0	0	575
4824	0	0	0	0	575
4825	0	0	0	0	575
4826	0	0	0	0	575
4827	0	0	0	0	575
4828	0	0	0	0	575
4829	0	0	0	0	575
4830	0	0	0	0	575
4831	0	0	0	0	575
4832	0	0	0	0	532
4833	0	0	0	0	537
4834	0	0	0	0	542
4835	0	0	0	0	547
4836	0	0	0	0	552
4837	0	0	0	0	557
4838	0	0	0	0	562
4839	0	0	0	0	567
4840	0	0	0	0	572
4841	0	0	0	0	575
4842	0	0	0	0	575
4843	0	0	0	0	575
4844	0	0	0	0	575
4845	0	0	0	0	575
4846	0	0	0	0	575
4847	0	0	0	0	575
4848	0	0	0	0	575
4849	0	0	0	0	575
4850	0	0	0	0	575
4851	0	0	0	0	575
4852	0	0	0	0	575
4853	0	0	0	0	575
4854	0	0	0	0	575
4855	0	0	0	0	575
4856	0	0	0	0	575
4857	0	0	0	0	575
4858	0	0	0	0	575
4859	0	0	0	0	575
4860	0	0	0	0	575
4861	0	0	0	0	575
4862	0	0	0	0	575
4863	0	0	0	0	575
4864	0	0	0	0	575
4865	0	0	0	0	575
4866	0	0	0	0	575
4867	0	0	0	0	575
4868	0	0	0	0	575
4869	0	0	0	0	575
4870	0	0	0	0	575
4871	0	0	0	0	575
4872	0	0	0	0	575
4873	0	0	0	0	575
4874	0	0	0	0	575
4875	0	0	0	0	575
4876	0	0	0	0	575
4877	0	0	0	0	575
4878	0	0	0	0	575
4879	0	0	0	0	575
4880	0	0	0	0	306
4881	0	0	0	0	450
4882	0	0	0	0	455
4883	0	0	0	0	460
4884	0	0	0	0	465
4885	0	0	0	0	470
4886	0	0	0	0	475
4887	0	0	0	0	619
4888	0	0	0	0	575
4889	0	0	0	0	773
4890	0	0	0	0	575
4891	0	0	0	0	575
4892	0	0	0	0	575
4893	0	0	0	0	575
4894	0	0	0	0	575
4895	0	0	0	0	575
4896	0	0	0	0	575
4897	0	0	0	0	575
4898	0	0	0	0	575
4899	0	0	0	0	575
4900	0	0	0	0	575
4901	0	0	0	0	575
4902	0	0	0	0	575
4903	0	0	0	0	575
4904	0	0	0	0	575
4905	0	0	0	0	575
4906	0	0	0	0	575
4907	0	0	0	0	575
4908	0	0	0	0	575
4909	0	0	0	0	575
4910	0	0	0	0	575
4911	0	0	0	0	575
4912	0	0	0	0	575
4913	0	0	0	0	575
4914	0	0	0	0	575
4915	0	0	0	0	575
4916	0	0	0	0	575
4917	0	0	0	0	575
4918	0	0	0	0	575
4919	0	0	0	0	575
4920	0	0	0	0	575
4921	0	0	0	0	575
4922	0	0	0	0	575
4923	0	0	0	0	575
4924	0	0	0	0	575
4925	0	0	0	0	575
4926	0	0	0	0	575
4927	0	0	0	0	575
4928	0	0	0	0	575
4929	0	0	0	0	448
4930	0	0	0	0	453
4931	0	0	0	0	458
4932	0	0	0	0	463
4933	0	0	0	0	468
4934	0	0	0	0	473
4935	0	0	0	0	478
4936	0	0	0	0	483
4937	0	0	0	0	488
4938	0	0	0	0	493
4939	0	0	0	0	498
4940	0	0	0	0	503
4941	0	0	0	0	508
4942	0	0	0	0	513
4943	0	0	0	0	518
4944	0	0	0	0	523
4945	0	0	0	0	528
4946	0	0	0	0	533
4947	0	0	0	0	538
4948	0	0	0	0	543
4949	0	0	0	0	548
4950	0	0	0	0	553
4951	0	0	0	0	462
4952	0	0	0	0	467
4953	0	0	0	0	472
4954	0	0	0	0	477
4955	0	0	0	0	482
4956	0	0	0	0	487
4957	0	0	0	0	492
4958	0	0	0	0	497
4959	0	0	0	0	502
4960	0	0	0	0	507
4961	0	0	0	0	512
4962	0	0	0	0	517
4963	0	0	0	0	522
4964	0	0	0	0	527
4965	0	0	0	0	532
4966	0	0	0	0	537
4967	0	0	0	0	542
4968	0	0	0	0	547
4969	0	0	0	0	552
4970	0	0	0	0	557
4971	0	0	0	0	562
4972	0	0	0	0	567
4973	0	0	0	0	572
4974	0	0	0	0	575
4975	0	0	0	0	575
4976	0	0	0	0	394
4977	0	0	0	0	450
4978	0	0	0	0	723
4979	0	0	0	0	575
4980	0	0	0	0	693
4981	0	0	0	0	575
4982	0	0	0	0	575
4983	0	0	0	0	575
4984	0	0	0	0	575
4985	0	0	0	0	575
4986	0	0	0	0	575
4987	0	0	0	0	575
4988	0	0	0	0	575
4989	0	0	0	0	575
4990	0	0	0	0	575
4991	0	0	0	0	575
4992	0	0	0	0	575
4993	0	0	0	0	575
4994	0	0	0	0	575
4995	0	0	0	0	575
4996	0	0	0	0	575
4997	0	0	0	0	575
4998	0	0	0	0	575
4999	0	0	0	0	575
5000	0	0	0	0	231
5001	0	0	0	0	450
5002	0	0	0	0	455
5003	0	0	0	0	460
5004	0	0	0	0	465
5005	0	0	0	0	470
5006	0	0	0	0	475
5007	0	0	0	0	480
5008	0	0	0	0	485
5009	0	0	0	0	490
5010	0	0	0	0	703
5011	0	0	0	0	575
5012	0	0	0	0	575
5013	0	0	0	0	575
5014	0	0	0	0	575
5015	0	0	0	0	575
5016	0	0	0	0	575
5017	0	0	0	0	575
5018	0	0	0	0	575
5019	0	0	0	0	575
5020	0	0	0	0	575
5021	0	0	0	0	575
5022	0	0	0	0	575
5023	0	0	0	0	575
5024	0	0	0	0	575
5025	0	0	0	0	575
5026	0	0	0	0	575
5027	0	0	0	0	575
5028	0	0	0	0	734
5029	0	0	0	0	575
5030	0	0	0	0	575
5031	0	0	0	0	689
5032	0	0	0	0	575
5033	0	0	0	0	575
5034	0	0	0	0	575
5035	0	0	0	0	575
5036	0	0	0	0	575
5037	0	0	0	0	575
5038	0	0	0	0	575
5039	0	0	0	0	575
5040	0	0	0	0	575
5041	0	0	0	0	575
5042	0	0	0	0	575
5043	0	0	0	0	575
5044	0	0	0	0	575
5045	0	0	0	0	575
5046	0	0	0	0	575
5047	0	0	0	0	575
5048	0	0	0	0	575
5049	0	0	0	0	575
5050	0	0	0	0	575
5051	0	0	0	0	436
5052	0	0	0	0	450
5053	0	0	0	0	455
5054	0	0	0	0	460
5055	0	0	0	0	465
5056	0	0	0	0	470
5057	0	0	0	0	475
5058	0	0	0	0	480
5059	0	0	0	0	485
5060	0	0	0	0	490
5061	0	0	0	0	495
5062	0	0	0	0	500
5063	0	0	0	0	505
5064	0	0	0	0	510
5065	0	0	0	0	515
5066	0	0	0	0	520
5067	0	0	0	0	525
5068	0	0	0	0	530
5069	0	0	0	0	535
5070	0	0	0	0	540
5071	0	0	0	0	545
5072	0	0	0	0	550
5073	0	0	0	0	555
5074	0	0	0	0	560
5075	0	0	0	0	565
5076	0	0	0	0	570
5077	0	0	0	0	575
5078	0	0	0	0	575
5079	0	0	0	0	575
5080	0	0	0	0	575
5081	0	0	0	0	575
5082	0	0	0	0	575
5083	0	0	0	0	575
5084	0	0	0	0	575
5085	0	0	0	0	575
5086	0	0	0	0	575
5087	0	0	0	0	575
5088	0	0	0	0	575
5089	0	0	0	0	575
5090	0	0	0	0	575
5091	0	0	0	0	575
5092	0	0	0	0	575
5093	0	0	0	0	575
5094	0	0	0	0	575
5095	0	0	0	0	575
5096	0	0	0	0	575
5097	0	0	0	0	575
5098	0	0	0	0	575
5099	0	0	0	0	575
5100	0	0	0	0	570
5101	0	0	0	0	483
5102	0	0	0	0	478
5103	0	0	0	0	473
5104	0	0	0	0	468
5105	0	0	0	0	463
5106	0	0	0	0	458
5107	0	0	0	0	453
5108	0	0	0	0	450
5109	0	0	0	0	450
5110	0	0	0	0	450
5111	0	0	0	0	450
5112	0	0	0	0	450
5113	0	0	0	0	450
5114	0	0	0	0	450
5115	0	0	0	0	450
5116	0	0	0	0	450
5117	0	0	0	0	450
5118	0	0	0	0	450
5119	0	0	0	0	450
5120	0	0	0	0	450
5121	0	0	0	0	450
5122	0	0	0	0	450
5123	0	0	0	0	450
5124	0	0	0	0	450
5125	0	0	0	0	450
5126	0	0	0	0	450
5127	0	0	0	0	450
5128	0	0	0	0	450
5129	0	0	0	0	450
5130	0	0	0	0	450
5131	0	0	0	0	450
5132	0	0	0	0	450
5133	0	0	0	0	450
5134	0	0	0	0	450
5135	0	0	0	0	450
5136	0	0	0	0	450
5137	0	0	0	0	450
5138	0	0	0	0	450
5139	0	0	0	0	450
5140	0	0	0	0	450
5141	0	0	0	0	450
5142	0	0	0	0	450
5143	0	0	0	0	450
5144	0	0	0	0	753
5145	0	0	0	0	575
5146	0	0	0	0	570
5147	0	0	0	0	565
5148	0	0	0	0	560
5149	0	0	0	0	555
5150	0	0	0	0	550
5151	0	0	0	0	545
5152	0	0	0	0	540
5153	0	0	0	0	535
5154	0	0	0	0	530
5155	0	0	0	0	759
5156	0	0	0	0	575
5157	0	0	0	0	570
5158	0	0	0	0	327
5159	0	0	0	0	284
5160	0	0	0	0	450
5161	0	0	0	0	450
5162	0	0	0	0	450
5163	0	0	0	0	450
5164	0	0	0	0	450
5165	0	0	0	0	450
5166	0	0	0	0	450
5167	0	0	0	0	450
5168	0	0	0	0	450
5169	0	0	0	0	450
5170	0	0	0	0	450
5171	0	0	0	0	450
5172	0	0	0	0	450
5173	0	0	0	0	450
5174	0	0	0	0	450
5175	0	0	0	0	450
5176	0	0	0	0	450
5177	0	0	0	0	450
5178	0	0	0	0	450
5179	0	0	0	0	450
5180	0	0	0	0	450
5181	0	0	0	0	450
5182	0	0	0	0	450
5183	0	0	0	0	450
5184	0	0	0	0	450
5185	0	0	0	0	450
5186	0	0	0	0	450
5187	0	0	0	0	450
5188	0	0	0	0	450
5189	0	0	0	0	241
5190	0	0	0	0	450
5191	0	0	0	0	450
5192	0	0	0	0	450
5193	0	0	0	0	450
5194	0	0	0	0	450
5195	0	0	0	0	450
5196	0	0	0	0	450
5197	0	0	0	0	450
5198	0	0	0	0	450
5199	0	0	0	0	450
5200	0	0	0	0	565
5201	0	0	0	0	560
5202	0	0	0	0	555
5203	0	0	0	0	550
5204	0	0	0	0	545
5205	0	0	0	0	156
5206	0	0	0	0	450
5207	0	0	0	0	450
5208	0	0	0	0	450
5209	0	0	0	0	450
5210	0	0	0	0	450
5211	0	0	0	0	450
5212	0	0	0	0	450
5213	0	0	0	0	450
5214	0	0	0	0	360
5215	0	0	0	0	450
5216	0	0	0	0	450
5217	0	0	0	0	450
5218	0	0	0	0	450
5219	0	0	0	0	450
5220	0	0	0	0	450
5221	0	0	0	0	450
5222	0	0	0	0	450
5223	0	0	0	0	450
5224	0	0	0	0	450
5225	0	0	0	0	450
5226	0	0	0	0	450
5227	0	0	0	0	450
5228	0	0	0	0	450
5229	0	0	0	0	450
5230	0	0	0	0	450
5231	0	0	0	0	450
5232	0	0	0	0	450
5233	0	0	0	0	450
5234	0	0	0	0	450
5235	0	0	0	0	450
5236	0	0	0	0	449
5237	0	0	0	0	450
5238	0	0	0	0	450
5239	0	0	0	0	450
5240	0	0	0	0	450
5241	0	0	0	0	568
5242	0	0	0	0	563
5243	0	0	0	0	558
5244	0	0	0	0	553
5245	0	0	0	0	548
5246	0	0	0	0	543
5247	0	0	0	0	538
5248	0	0	0	0	533
5249	0	0	0	0	528
5250	0	0	0	0	523
5251	0	0	0	0	518
5252	0	0	0	0	513
5253	0	0	0	0	508
5254	0	0	0	0	503
5255	0	0	0	0	498
5256	0	0	0	0	493
5257	0	0	0	0	488
5258	0	0	0	0	483
5259	0	0	0	0	478
5260	0	0	0	0	473
5261	0	0	0	0	499
5262	0	0	0	0	494
5263	0	0	0	0	489
5264	0	0	0	0	484
5265	0	0	0	0	479
5266	0	0	0	0	474
5267	0	0	0	0	469
5268	0	0	0	0	464
5269	0	0	0	0	459
5270	0	0	0	0	454
5271	0	0	0	0	450
5272	0	0	0	0	450
5273	0	0	0	0	450
5274	0	0	0	0	450
5275	0	0	0	0	450
5276	0	0	0	0	450
5277	0	0	0	0	450
5278	0	0	0	0	450
5279	0	0	0	0	450
5280	0	0	0	0	450
5281	0	0	0	0	450
5282	0	0	0	0	450
5283	0	0	0	0	450
5284	0	0	0	0	450
5285	0	0	0	0	450
5286	0	0	0	0	450
5287	0	0	0	0	450
5288	0	0	0	0	450
5289	0	0	0	0	450
5290	0	0	0	0	450
5291	0	0	0	0	450
5292	0	0	0	0	450
5293	0	0	0	0	450
5294	0	0	0	0	450
5295	0	0	0	0	450
5296	0	0	0	0	450
5297	0	0	0	0	450
5298	0	0	0	0	450
5299	0	0	0	0	450
5300	0	0	0	0	455
5301	0	0	0	0	460
5302	0	0	0	0	465
5303	0	0	0	0	470
5304	0	0	0	0	475
5305	0	0	0	0	480
5306	0	0	0	0	485
5307	0	0	0	0	490
5308	0	0	0	0	495
5309	0	0	0	0	500
5310	0	0	0	0	505
5311	0	0	0	0	510
5312	0	0	0	0	515
5313	0	0	0	0	520
5314	0	0	0	0	525
5315	0	0	0	0	530
5316	0	0	0	0	535
5317	0	0	0	0	540
5318	0	0	0	0	545
5319	0	0	0	0	550
5320	0	0	0	0	555
5321	0	0	0	0	560
5322	0	0	0	0	565
5323	0	0	0	0	570
5324	0	0	0	0	575
5325	0	0	0	0	575
5326	0	0	0	0	575
5327	0	0	0	0	575
5328	0	0	0	0	575
5329	0	0	0	0	575
5330	0	0	0	0	575
5331	0	0	0	0	575
5332	0	0	0	0	575
5333	0	0	0	0	575
5334	0	0	0	0	575
5335	0	0	0	0	575
5336	0	0	0	0	575
5337	0	0	0	0	575
5338	0	0	0	0	575
5339	0	0	0	0	575
5340	0	0	0	0	575
5341	0	0	0	0	509
5342	0	0	0	0	514
5343	0	0	0	0	519
5344	0	0	0	0	524
5345	0	0	0	0	529
5346	0	0	0	0	534
5347	0	0	0	0	539
5348	0	0	0	0	544
5349	0	0	0	0	549
5350	0	0	0	0	474
5351	0	0	0	0	479
5352	0	0	0	0	484
5353	0	0	0	0	489
5354	0	0	0	0	494
5355	0	0	0	0	347
5356	0	0	0	0	450
5357	0	0	0	0	455
5358	0	0	0	0	460
5359	0	0	0	0	465
5360	0	0	0	0	470
5361	0	0	0	0	475
5362	0	0	0	0	480
5363	0	0	0	0	485
5364	0	0	0	0	490
5365	0	0	0	0	495
5366	0	0	0	0	500
5367	0	0	0	0	505
5368	0	0	0	0	510
5369	0	0	0	0	515
5370	0	0	0	0	520
5371	0	0	0	0	525
5372	0	0	0	0	530
5373	0	0	0	0	535
5374	0	0	0	0	540
5375	0	0	0	0	545
5376	0	0	0	0	550
5377	0	0	0	0	555
5378	0	0	0	0	560
5379	0	0	0	0	565
5380	0	0	0	0	570
5381	0	0	0	0	575
5382	0	0	0	0	575
5383	0	0	0	0	575
5384	0	0	0	0	575
5385	0	0	0	0	575
5386	0	0	0	0	575
5387	0	0	0	0	575
5388	0	0	0	0	575
5389	0	0	0	0	575
5390	0	0	0	0	575
5391	0	0	0	0	575
5392	0	0	0	0	575
5393	0	0	0	0	575
5394	0	0	0	0	575
5395	0	0	0	0	575
5396	0	0	0	0	683
5397	0	0	0	0	575
5398	0	0	0	0	575
5399	0	0	0	0	575
5400	0	0	0	0	575
5401	0	0	0	0	575
5402	0	0	0	0	575
5403	0	0	0	0	575
5404	0	0	0	0	575
5405	0	0	0	0	575
5406	0	0	0	0	575
5407	0	0	0	0	575
5408	0	0	0	0	575
5409	0	0	0	0	575
5410	0	0	0	0	575
5411	0	0	0	0	575
5412	0	0	0	0	575
5413	0	0	0	0	575
5414	0	0	0	0	575
5415	0	0	0	0	575
5416	0	0	0	0	575
5417	0	0	0	0	575
5418	0	0	0	0	575
5419	0	0	0	0	575
5420	0	0	0	0	800
5421	0	0	0	0	575
5422	0	0	0	0	575
5423	0	0	0	0	575
5424	0	0	0	0	575
5425	0	0	0	0	575
5426	0	0	0	0	575
5427	0	0	0	0	575
5428	0	0	0	0	575
5429	0	0	0	0	575
5430	0	0	0	0	202
5431	0	0	0	0	450
5432	0	0	0	0	455
5433	0	0	0	0	460
5434	0	0	0	0	465
5435	0	0	0	0	470
5436	0	0	0	0	475
5437	0	0	0	0	480
5438	0	0	0	0	485
5439	0	0	0	0	490
5440	0	0	0	0	495
5441	0	0	0	0	500
5442	0	0	0	0	505
5443	0	0	0	0	510
5444	0	0	0	0	515
5445	0	0	0	0	520
5446	0	0	0	0	525
5447	0	0	0	0	530
5448	0	0	0	0	535
5449	0	0	0	0	540
5450	0	0	0	0	545
5451	0	0	0	0	550
5452	0	0	0	0	555
5453	0	0	0	0	560
5454	0	0	0	0	799
5455	0	0	0	0	575
5456	0	0	0	0	575
5457	0	0	0	0	575
5458	0	0	0	0	575
5459	0	0	0	0	575
5460	0	0	0	0	575
5461	0	0	0	0	575
5462	0	0	0	0	575
5463	0	0	0	0	575
5464	0	0	0	0	575
5465	0	0	0	0	575
5466	0	0	0	0	575
5467	0	0	0	0	575
5468	0	0	0	0	575
5469	0	0	0	0	575
5470	0	0	0	0	575
5471	0	0	0	0	575
5472	0	0	0	0	575
5473	0	0	0	0	575
5474	0	0	0	0	575
5475	0	0	0	0	575
5476	0	0	0	0	575
5477	0	0	0	0	575
5478	0	0	0	0	575
5479	0	0	0	0	575
5480	0	0	0	0	575
5481	0	0	0	0	575
5482	0	0	0	0	575
5483	0	0	0	0	575
5484	0	0	0	0	575
5485	0	0	0	0	575
5486	0	0	0	0	575
5487	0	0	0	0	575
5488	0	0	0	0	575
5489	0	0	0	0	575
5490	0	0	0	0	575
5491	0	0	0	0	575
5492	0	0	0	0	575
5493	0	0	0	0	575
5494	0	0	0	0	575
5495	0	0	0	0	575
5496	0	0	0	0	575
5497	0	0	0	0	575
5498	0	0	0	0	575
5499	0	0	0	0	575
5500	0	0	0	0	570
5501	0	0	0	0	565
5502	0	0	0	0	560
5503	0	0	0	0	555
5504	0	0	0	0	550
5505	0	0	0	0	545
5506	0	0	0	0	540
5507	0	0	0	0	535
5508	0	0	0	0	530
5509	0	0	0	0	525
5510	0	0	0	0	520
5511	0	0	0	0	515
5512	0	0	0	0	510
5513	0	0	0	0	505
5514	0	0	0	0	500
5515	0	0	0	0	495
5516	0	0	0	0	490
5517	0	0	0	0	485
5518	0	0	0	0	480
5519	0	0	0	0	475
5520	0	0	0	0	470
5521	0	0	0	0	465
5522	0	0	0	0	275
5523	0	0	0	0	450
5524	0	0	0	0	450
5525	0	0	0	0	450
5526	0	0	0	0	450
5527	0	0	0	0	450
5528	0	0	0	0	450
5529	0	0	0	0	450
5530	0	0	0	0	450
5531	0	0	0	0	450
5532	0	0	0	0	450
5533	0	0	0	0	450
5534	0	0	0	0	450
5535	0	0	0	0	450
5536	0	0	0	0	450
5537	0	0	0	0	450
5538	0	0	0	0	450
5539	0	0	0	0	450
5540	0	0	0	0	450
5541	0	0	0	0	450
5542	0	0	0	0	450
5543	0	0	0	0	450
5544	0	0	0	0	450
5545	0	0	0	0	450
5546	0	0	0	0	450
5547	0	0	0	0	450
5548	0	0	0	0	450
5549	0	0	0	0	450
5550	0	0	0	0	450
5551	0	0	0	0	450
5552	0	0	0	0	450
5553	0	0	0	0	450
5554	0	0	0	0	450
5555	0	0	0	0	450
5556	0	0	0	0	450
5557	0	0	0	0	450
5558	0	0	0	0	450
5559	0	0	0	0	450
5560	0	0	0	0	450
5561	0	0	0	0	450
5562	0	0	0	0	450
5563	0	0	0	0	450
5564	0	0	0	0	450
5565	0	0	0	0	450
5566	0	0	0	0	450
5567	0	0	0	0	450
5568	0	0	0	0	450
5569	0	0	0	0	450
5570	0	0	0	0	450
5571	0	0	0	0	450
5572	0	0	0	0	450
5573	0	0	0	0	450
5574	0	0	0	0	450
5575	0	0	0	0	450
5576	0	0	0	0	450
5577	0	0	0	0	450
5578	0	0	0	0	450
5579	0	0	0	0	450
5580	0	0	0	0	450
5581	0	0	0	0	450
5582	0	0	0	0	392
5583	0	0	0	0	450
5584	0	0	0	0	450
5585	0	0	0	0	450
5586	0	0	0	0	450
5587	0	0	0	0	450
5588	0	0	0	0	450
5589	0	0	0	0	450
5590	0	0	0	0	450
5591	0	0	0	0	450
5592	0	0	0	0	450
5593	0	0	0	0	450
5594	0	0	0	0	450
5595	0	0	0	0	450
5596	0	0	0	0	450
5597	0	0	0	0	450
5598	0	0	0	0	450
5599	0	0	0	0	450
5600	0	0	0	0	450
5601	0	0	0	0	450
5602	0	0	0	0	573
5603	0	0	0	0	568
5604	0	0	0	0	563
5605	0	0	0	0	558
5606	0	0	0	0	553
5607	0	0	0	0	548
5608	0	0	0	0	543
5609	0	0	0	0	538
5610	0	0	0	0	533
5611	0	0	0	0	455
5612	0	0	0	0	450
5613	0	0	0	0	450
5614	0	0	0	0	450
5615	0	0	0	0	450
5616	0	0	0	0	450
5617	0	0	0	0	450
5618	0	0	0	0	450
5619	0	0	0	0	450
5620	0	0	0	0	450
5621	0	0	0	0	450
5622	0	0	0	0	450
5623	0	0	0	0	450
5624	0	0	0	0	450
5625	0	0	0	0	450
5626	0	0	0	0	450
5627	0	0	0	0	450
5628	0	0	0	0	227
5629	0	0	0	0	450
5630	0	0	0	0	450
5631	0	0	0	0	450
5632	0	0	0	0	450
5633	0	0	0	0	450
5634	0	0	0	0	450
5635	0	0	0	0	450
5636	0	0	0	0	450
5637	0	0	0	0	450
5638	0	0	0	0	450
5639	0	0	0	0	450
5640	0	0	0	0	450
5641	0	0	0	0	450
5642	0	0	0	0	450
5643	0	0	0	0	450
5644	0	0	0	0	386
5645	0	0	0	0	450
5646	0	0	0	0	450
5647	0	0	0	0	450
5648	0	0	0	0	450
5649	0	0	0	0	450
5650	0	0	0	0	450
5651	0	0	0	0	450
5652	0	0	0	0	450
5653	0	0	0	0	450
5654	0	0	0	0	450
5655	0	0	0	0	450
5656	0	0	0	0	450
5657	0	0	0	0	450
5658	0	0	0	0	450
5659	0	0	0	0	450
5660	0	0	0	0	450
5661	0	0	0	0	450
5662	0	0	0	0	450
5663	0	0	0	0	450
5664	0	0	0	0	450
5665	0	0	0	0	450
5666	0	0	0	0	450
5667	0	0	0	0	450
5668	0	0	0	0	650
5669	0	0	0	0	575
5670	0	0	0	0	570
5671	0	0	0	0	565
5672	0	0	0	0	560
5673	0	0	0	0	555
5674	0	0	0	0	550
5675	0	0	0	0	545
5676	0	0	0	0	540
5677	0	0	0	0	535
5678	0	0	0	0	530
5679	0	0	0	0	525
5680	0	0	0	0	520
5681	0	0	0	0	515
5682	0	0	0	0	510
5683	0	0	0	0	505
5684	0	0	0	0	500
5685	0	0	0	0	495
5686	0	0	0	0	490
5687	0	0	0	0	485
5688	0	0	0	0	480
5689	0	0	0	0	475
5690	0	0	0	0	416
5691	0	0	0	0	450
5692	0	0	0	0	450
5693	0	0	0	0	450
5694	0	0	0	0	450
5695	0	0	0	0	450
5696	0	0	0	0	450
5697	0	0	0	0	265
5698	0	0	0	0	450
5699	0	0	0	0	450
5700	0	0	0	0	450
5701	0	0	0	0	450
5702	0	0	0	0	450
5703	0	0	0	0	450
5704	0	0	0	0	721
5705	0	0	0	0	430
5706	0	0	0	0	450
5707	0	0	0	0	450
5708	0	0	0	0	450
5709	0	0	0	0	450
5710	0	0	0	0	450
5711	0	0	0	0	450
5712	0	0	0	0	450
5713	0	0	0	0	450
5714	0	0	0	0	450
5715	0	0	0	0	450
5716	0	0	0	0	450
5717	0	0	0	0	450
5718	0	0	0	0	450
5719	0	0	0	0	450
5720	0	0	0	0	501
5721	0	0	0	0	496
5722	0	0	0	0	491
5723	0	0	0	0	486
5724	0	0	0	0	481
5725	0	0	0	0	476
5726	0	0	0	0	471
5727	0	0	0	0	466
5728	0	0	0	0	461
5729	0	0	0	0	456
5730	0	0	0	0	451
5731	0	0	0	0	450
5732	0	0	0	0	450
5733	0	0	0	0	450
5734	0	0	0	0	450
5735	0	0	0	0	450
5736	0	0	0	0	450
5737	0	0	0	0	450
5738	0	0	0	0	450
5739	0	0	0	0	450
5740	0	0	0	0	450
5741	0	0	0	0	450
5742	0	0	0	0	450
5743	0	0	0	0	450
5744	0	0	0	0	450
5745	0	0	0	0	450
5746	0	0	0	0	450
5747	0	0	0	0	450
5748	0	0	0	0	450
5749	0	0	0	0	450
5750	0	0	0	0	450
5751	0	0	0	0	450
5752	0	0	0	0	450
5753	0	0	0	0	450
5754	0	0	0	0	450
5755	0	0	0	0	450
5756	0	0	0	0	450
5757	0	0	0	0	608
5758	0	0	0	0	575
5759	0	0	0	0	570
5760	0	0	0	0	565
5761	0	0	0	0	560
5762	0	0	0	0	555
5763	0	0	0	0	550
5764	0	0	0	0	345
5765	0	0	0	0	450
5766	0	0	0	0	450
5767	0	0	0	0	450
5768	0	0	0	0	450
5769	0	0	0	0	450
5770	0	0	0	0	450
5771	0	0	0	0	450
5772	0	0	0	0	450
5773	0	0	0	0	450
5774	0	0	0	0	450
5775	0	0	0	0	450
5776	0	0	0	0	450
5777	0	0	0	0	450
5778	0	0	0	0	450
5779	0	0	0	0	450
5780	0	0	0	0	450
5781	0	0	0	0	450
5782	0	0	0	0	450
5783	0	0	0	0	450
5784	0	0	0	0	450
5785	0	0	0	0	450
5786	0	0	0	0	450
5787	0	0	0	0	450
5788	0	0	0	0	450
5789	0	0	0	0	450
5790	0	0	0	0	450
5791	0	0	0	0	450
5792	0	0	0	0	450
5793	0	0	0	0	450
5794	0	0	0	0	450
5795	0	0	0	0	450
5796	0	0	0	0	450
5797	0	0	0	0	450
5798	0	0	0	0	450
5799	0	0	0	0	450
5800	0	0	0	0	455
5801	0	0	0	0	460
5802	0	0	0	0	465
5803	0	0	0	0	470
5804	0	0	0	0	475
5805	0	0	0	0	480
5806	0	0	0	0	485
5807	0	0	0	0	490
5808	0	0	0	0	495
5809	0	0	0	0	510
5810	0	0	0	0	515
5811	0	0	0	0	520
5812	0	0	0	0	525
5813	0	0	0	0	530
5814	0	0	0	0	535
5815	0	0	0	0	540
5816	0	0	0	0	545
5817	0	0	0	0	550
5818	0	0	0	0	555
5819	0	0	0	0	560
5820	0	0	0	0	565
5821	0	0	0	0	570
5822	0	0	0	0	575
5823	0	0	0	0	575
5824	0	0	0	0	575
5825	0	0	0	0	575
5826	0	0	0	0	575
5827	0	0	0	0	575
5828	0	0	0	0	575
5829	0	0	0	0	575
5830	0	0	0	0	575
5831	0	0	0	0	575
5832	0	0	0	0	575
5833	0	0	0	0	575
5834	0	0	0	0	575
5835	0	0	0	0	575
5836	0	0	0	0	575
5837	0	0	0	0	575
5838	0	0	0	0	575
5839	0	0	0	0	575
5840	0	0	0	0	575
5841	0	0	0	0	575
5842	0	0	0	0	575
5843	0	0	0	0	575
5844	0	0	0	0	575
5845	0	0	0	0	575
5846	0	0	0	0	575
5847	0	0	0	0	575
5848	0	0	0	0	575
5849	0	0	0	0	575
5850	0	0	0	0	575
5851	0	0	0	0	575
5852	0	0	0	0	575
5853	0	0	0	0	575
5854	0	0	0	0	575
5855	0	0	0	0	575
5856	0	0	0	0	575
5857	0	0	0	0	575
5858	0	0	0	0	575
5859	0	0	0	0	575
5860	0	0	0	0	575
5861	0	0	0	0	575
5862	0	0	0	0	575
5863	0	0	0	0	575
5864	0	0	0	0	575
5865	0	0	0	0	575
5866	0	0	0	0	575
5867	0	0	0	0	575
5868	0	0	0	0	575
5869	0	0	0	0	575
5870	0	0	0	0	575
5871	0	0	0	0	575
5872	0	0	0	0	575
5873	0	0	0	0	575
5874	0	0	0	0	575
5875	0	0	0	0	575
5876	0	0	0	0	534
5877	0	0	0	0	539
5878	0	0	0	0	328
5879	0	0	0	0	450
5880	0	0	0	0	455
5881	0	0	0	0	460
5882	0	0	0	0	465
5883	0	0	0	0	470
5884	0	0	0	0	475
5885	0	0	0	0	480
5886	0	0	0	0	485
5887	0	0	0	0	490
5888	0	0	0	0	495
5889	0	0	0	0	500
5890	0	0	0	0	505
5891	0	0	0	0	510
5892	0	0	0	0	515
5893	0	0	0	0	520
5894	0	0	0	0	525
5895	0	0	0	0	530
5896	0	0	0	0	535
5897	0	0	0	0	540
5898	0	0	0	0	545
5899	0	0	0	0	550
5900	0	0	0	0	555
5901	0	0	0	0	560
5902	0	0	0	0	565
5903	0	0	0	0	570
5904	0	0	0	0	575
5905	0	0	0	0	575
5906	0	0	0	0	381
5907	0	0	0	0	450
5908	0	0	0	0	455
5909	0	0	0	0	460
5910	0	0	0	0	465
5911	0	0	0	0	541
5912	0	0	0	0	546
5913	0	0	0	0	551
5914	0	0	0	0	556
5915	0	0	0	0	561
5916	0	0	0	0	566
5917	0	0	0	0	571
5918	0	0	0	0	575
5919	0	0	0	0	575
5920	0	0	0	0	575
5921	0	0	0	0	575
5922	0	0	0	0	575
5923	0	0	0	0	575
5924	0	0	0	0	575
5925	0	0	0	0	575
5926	0	0	0	0	575
5927	0	0	0	0	575
5928	0	0	0	0	575
5929	0	0	0	0	575
5930	0	0	0	0	575
5931	0	0	0	0	575
5932	0	0	0	0	575
5933	0	0	0	0	575
5934	0	0	0	0	575
5935	0	0	0	0	575
5936	0	0	0	0	575
5937	0	0	0	0	575
5938	0	0	0	0	575
5939	0	0	0	0	575
5940	0	0	0	0	575
5941	0	0	0	0	575
5942	0	0	0	0	575
5943	0	0	0	0	575
5944	0	0	0	0	575
5945	0	0	0	0	575
5946	0	0	0	0	575
5947	0	0	0	0	575
5948	0	0	0	0	575
5949	0	0	0	0	575
5950	0	0	0	0	515
5951	0	0	0	0	520
5952	0	0	0	0	525
5953	0	0	0	0	530
5954	0	0	0	0	535
5955	0	0	0	0	540
5956	0	0	0	0	545
5957	0	0	0	0	550
5958	0	0	0	0	555
5959	0	0	0	0	353
5960	0	0	0	0	450
5961	0	0	0	0	455
5962	0	0	0	0	460
5963	0	0	0	0	465
5964	0	0	0	0	470
5965	0	0	0	0	475
5966	0	0	0	0	642
5967	0	0	0	0	575
5968	0	0	0	0	575
5969	0	0	0	0	575
5970	0	0	0	0	575
5971	0	0	0	0	575
5972	0	0	0	0	575
5973	0	0	0	0	575
5974	0	0	0	0	575
5975	0	0	0	0	575
5976	0	0	0	0	575
5977	0	0	0	0	575
5978	0	0	0	0	575
5979	0	0	0	0	575
5980	0	0	0	0	575
5981	0	0	0	0	575
5982	0	0	0	0	575
5983	0	0	0	0	575
5984	0	0	0	0	575
5985	0	0	0	0	575
5986	0	0	0	0	575
5987	0	0	0	0	575
5988	0	0	0	0	575
5989	0	0	0	0	575
5990	0	0	0	0	575
5991	0	0	0	0	438
5992	0	0	0	0	450
5993	0	0	0	0	455
5994	0	0	0	0	460
5995	0	0	0	0	465
5996	0	0	0	0	470
5997	0	0	0	0	475
5998	0	0	0	0	480
5999	0	0	0	0	485
6000	0	0	0	0	490
6001	0	0	0	0	613
6002	0	0	0	0	575
6003	0	0	0	0	575
6004	0	0	0	0	556
6005	0	0	0	0	313
6006	0	0	0	0	450
6007	0	0	0	0	455
6008	0	0	0	0	460
6009	0	0	0	0	465
6010	0	0	0	0	470
6011	0	0	0	0	475
6012	0	0	0	0	480
6013	0	0	0	0	485
6014	0	0	0	0	490
6015	0	0	0	0	495
6016	0	0	0	0	500
6017	0	0	0	0	505
6018	0	0	0	0	510
6019	0	0	0	0	515
6020	0	0	0	0	520
6021	0	0	0	0	525
6022	0	0	0	0	530
6023	0	0	0	0	535
6024	0	0	0	0	540
6025	0	0	0	0	545
6026	0	0	0	0	550
6027	0	0	0	0	555
6028	0	0	0	0	560
6029	0	0	0	0	565
6030	0	0	0	0	570
6031	0	0	0	0	575
6032	0	0	0	0	575
6033	0	0	0	0	575
6034	0	0	0	0	575
6035	0	0	0	0	575
6036	0	0	0	0	575
6037	0	0	0	0	575
6038	0	0	0	0	575
6039	0	0	0	0	575
6040	0	0	0	0	575
6041	0	0	0	0	575
6042	0	0	0	0	575
6043	0	0	0	0	575
6044	0	0	0	0	575
6045	0	0	0	0	575
6046	0	0	0	0	575
6047	0	0	0	0	575
6048	0	0	0	0	371
6049	0	0	0	0	450
6050	0	0	0	0	455
6051	0	0	0	0	460
6052	0	0	0	0	465
6053	0	0	0	0	470
6054	0	0	0	0	475
6055	0	0	0	0	480
6056	0	0	0	0	485
6057	0	0	0	0	490
6058	0	0	0	0	102
6059	0	0	0	0	407
6060	0	0	0	0	450
6061	0	0	0	0	455
6062	0	0	0	0	460
6063	0	0	0	0	465
6064	0	0	0	0	470
6065	0	0	0	0	475
6066	0	0	0	0	480
6067	0	0	0	0	485
6068	0	0	0	0	490
6069	0	0	0	0	495
6070	0	0	0	0	500
6071	0	0	0	0	505
6072	0	0	0	0	510
6073	0	0	0	0	578
6074	0	0	0	0	575
6075	0	0	0	0	575
6076	0	0	0	0	575
6077	0	0	0	0	575
6078	0	0	0	0	575
6079	0	0	0	0	575
6080	0	0	0	0	575
6081	0	0	0	0	575
6082	0	0	0	0	575
6083	0	0	0	0	575
6084	0	0	0	0	575
6085	0	0	0	0	575
6086	0	0	0	0	575
6087	0	0	0	0	575
6088	0	0	0	0	575
6089	0	0	0	0	575
6090	0	0	0	0	575
6091	0	0	0	0	575
6092	0	0	0	0	575
6093	0	0	0	0	575
6094	0	0	0	0	575
6095	0	0	0	0	575
6096	0	0	0	0	575
6097	0	0	0	0	575
6098	0	0	0	0	575
6099	0	0	0	0	575
6100	0	0	0	0	575
6101	0	0	0	0	575
6102	0	0	0	0	575
6103	0	0	0	0	381
6104	0	0	0	0	450
6105	0	0	0	0	455
6106	0	0	0	0	460
6107	0	0	0	0	465
6108	0	0	0	0	470
6109	0	0	0	0	475
6110	0	0	0	0	480
6111	0	0	0	0	485
6112	0	0	0	0	490
6113	0	0	0	0	495
6114	0	0	0	0	500
6115	0	0	0	0	505
6116	0	0	0	0	510
6117	0	0	0	0	515
6118	0	0	0	0	520
6119	0	0	0	0	525
6120	0	0	0	0	530
6121	0	0	0	0	535
6122	0	0	0	0	540
6123	0	0	0	0	545
6124	0	0	0	0	550
6125	0	0	0	0	555
6126	0	0	0	0	560
6127	0	0	0	0	565
6128	0	0	0	0	570
6129	0	0	0	0	575
6130	0	0	0	0	575
6131	0	0	0	0	575
6132	0	0	0	0	575
6133	0	0	0	0	575
6134	0	0	0	0	575
6135	0	0	0	0	575
6136	0	0	0	0	575
6137	0	0	0	0	575
6138	0	0	0	0	575
6139	0	0	0	0	575
6140	0	0	0	0	575
6141	0	0	0	0	575
6142	0	0	0	0	575
6143	0	0	0	0	575
6144	0	0	0	0	575
6145	0	0	0	0	575
6146	0	0	0	0	575
6147	0	0	0	0	575
6148	0	0	0	0	575
6149	0	0	0	0	575
6150	0	0	0	0	575
6151	0	0	0	0	575
6152	0	0	0	0	575
6153	0	0	0	0	575
6154	0	0	0	0	575
6155	0	0	0	0	575
6156	0	0	0	0	575
6157	0	0	0	0	575
6158	0	0	0	0	575
6159	0	0	0	0	575
6160	0	0	0	0	575
6161	0	0	0	0	575
6162	0	0	0	0	575
6163	0	0	0	0	575
6164	0	0	0	0	575
6165	0	0	0	0	575
6166	0	0	0	0	575
6167	0	0	0	0	575
6168	0	0	0	0	575
6169	0	0	0	0	575
6170	0	0	0	0	575
6171	0	0	0	0	575
6172	0	0	0	0	575
6173	0	0	0	0	575
6174	0	0	0	0	575
6175	0	0	0	0	575
6176	0	0	0	0	575
6177	0	0	0	0	575
6178	0	0	0	0	575
6179	0	0	0	0	575
6180	0	0	0	0	575
6181	0	0	0	0	758
6182	0	0	0	0	575
6183	0	0	0	0	575
6184	0	0	0	0	575
6185	0	0	0	0	575
6186	0	0	0	0	575
6187	0	0	0	0	575
6188	0	0	0	0	575
6189	0	0	0	0	575
6190	0	0	0	0	575
6191	0	0	0	0	575
6192	0	0	0	0	575
6193	0	0	0	0	575
6194	0	0	0	0	575
6195	0	0	0	0	575
6196	0	0	0	0	575
6197	0	0	0	0	575
6198	0	0	0	0	575
6199	0	0	0	0	575
6200	0	0	0	0	575
6201	0	0	0	0	575
6202	0	0	0	0	575
6203	0	0	0	0	575
6204	0	0	0	0	575
6205	0	0	0	0	575
6206	0	0	0	0	575
6207	0	0	0	0	575
6208	0	0	0	0	575
6209	0	0	0	0	575
6210	0	0	0	0	575
6211	0	0	0	0	575
6212	0	0	0	0	575
6213	0	0	0	0	575
6214	0	0	0	0	575
6215	0	0	0	0	575
6216	0	0	0	0	575
6217	0	0	0	0	575
6218	0	0	0	0	575
6219	0	0	0	0	575
6220	0	0	0	0	575
6221	0	0	0	0	575
6222	0	0	0	0	575
6223	0	0	0	0	575
6224	0	0	0	0	575
6225	0	0	0	0	575
6226	0	0	0	0	575
6227	0	0	0	0	132
6228	0	0	0	0	450
6229	0	0	0	0	455
6230	0	0	0	0	460
6231	0	0	0	0	465
6232	0	0	0	0	470
6233	0	0	0	0	475
6234	0	0	0	0	480
6235	0	0	0	0	485
6236	0	0	0	0	477
6237	0	0	0	0	482
6238	0	0	0	0	487
6239	0	0	0	0	492
6240	0	0	0	0	497
6241	0	0	0	0	502
6242	0	0	0	0	507
6243	0	0	0	0	512
6244	0	0	0	0	517
6245	0	0	0	0	522
6246	0	0	0	0	527
6247	0	0	0	0	532
6248	0	0	0	0	537
6249	0	0	0	0	542
6250	0	0	0	0	547
6251	0	0	0	0	552
6252	0	0	0	0	557
6253	0	0	0	0	562
6254	0	0	0	0	567
6255	0	0	0	0	572
6256	0	0	0	0	575
6257	0	0	0	0	575
6258	0	0	0	0	575
6259	0	0	0	0	575
6260	0	0	0	0	575
6261	0	0	0	0	575
6262	0	0	0	0	575
6263	0	0	0	0	575
6264	0	0	0	0	575
6265	0	0	0	0	575
6266	0	0	0	0	575
6267	0	0	0	0	575
6268	0	0	0	0	575
6269	0	0	0	0	575
6270	0	0	0	0	575
6271	0	0	0	0	575
6272	0	0	0	0	575
6273	0	0	0	0	575
6274	0	0	0	0	575
6275	0	0	0	0	575
6276	0	0	0	0	575
6277	0	0	0	0	575
6278	0	0	0	0	575
6279	0	0	0	0	575
6280	0	0	0	0	575
6281	0	0	0	0	575
6282	0	0	0	0	575
6283	0	0	0	0	575
6284	0	0	0	0	575
6285	0	0	0	0	575
6286	0	0	0	0	767
6287	0	0	0	0	575
6288	0	0	0	0	575
6289	0	0	0	0	575
6290	0	0	0	0	429
6291	0	0	0	0	450
6292	0	0	0	0	455
6293	0	0	0	0	460
6294	0	0	0	0	465
6295	0	0	0	0	470
6296	0	0	0	0	475
6297	0	0	0	0	480
6298	0	0	0	0	485
6299	0	0	0	0	490
6300	0	0	0	0	485
6301	0	0	0	0	480
6302	0	0	0	0	475
6303	0	0	0	0	180
6304	0	0	0	0	450
6305	0	0	0	0	279
6306	0	0	0	0	450
6307	0	0	0	0	450
6308	0	0	0	0	450
6309	0	0	0	0	450
6310	0	0	0	0	450
6311	0	0	0	0	450
6312	0	0	0	0	450
6313	0	0	0	0	450
6314	0	0	0	0	450
6315	0	0	0	0	450
6316	0	0	0	0	450
6317	0	0	0	0	450
6318	0	0	0	0	450
6319	0	0	0	0	450
6320	0	0	0	0	450
6321	0	0	0	0	450
6322	0	0	0	0	450
6323	0	0	0	0	450
6324	0	0	0	0	450
6325	0	0	0	0	450
6326	0	0	0	0	450
6327	0	0	0	0	330
6328	0	0	0	0	450
6329	0	0	0	0	450
6330	0	0	0	0	450
6331	0	0	0	0	450
6332	0	0	0	0	450
6333	0	0	0	0	450
6334	0	0	0	0	450
6335	0	0	0	0	410
6336	0	0	0	0	615
6337	0	0	0	0	575
6338	0	0	0	0	570
6339	0	0	0	0	565
6340	0	0	0	0	560
6341	0	0	0	0	555
6342	0	0	0	0	550
6343	0	0	0	0	562
6344	0	0	0	0	557
6345	0	0	0	0	552
6346	0	0	0	0	106
6347	0	0	0	0	450
6348	0	0	0	0	450
6349	0	0	0	0	450
6350	0	0	0	0	419
6351	0	0	0	0	112
6352	0	0	0	0	450
6353	0	0	0	0	450
6354	0	0	0	0	450
6355	0	0	0	0	450
6356	0	0	0	0	450
6357	0	0	0	0	450
6358	0	0	0	0	450
6359	0	0	0	0	450
6360	0	0	0	0	450
6361	0	0	0	0	450
6362	0	0	0	0	450
6363	0	0	0	0	450
6364	0	0	0	0	450
6365	0	0	0	0	450
6366	0	0	0	0	450
6367	0	0	0	0	120
6368	0	0	0	0	450
6369	0	0	0	0	450
6370	0	0	0	0	450
6371	0	0	0	0	450
6372	0	0	0	0	450
6373	0	0	0	0	450
6374	0	0	0	0	450
6375	0	0	0	0	450
6376	0	0	0	0	450
6377	0	0	0	0	450
6378	0	0	0	0	450
6379	0	0	0	0	450
6380	0	0	0	0	450
6381	0	0	0	0	450
6382	0	0	0	0	414
6383	0	0	0	0	450
6384	0	0	0	0	450
6385	0	0	0	0	647
6386	0	0	0	0	575
6387	0	0	0	0	570
6388	0	0	0	0	565
6389	0	0	0	0	560
6390	0	0	0	0	555
6391	0	0	0	0	550
6392	0	0	0	0	102
6393	0	0	0	0	450
6394	0	0	0	0	450
6395	0	0	0	0	450
6396	0	0	0	0	450
6397	0	0	0	0	450
6398	0	0	0	0	450
6399	0	0	0	0	450
6400	0	0	0	0	450
6401	0	0	0	0	450
6402	0	0	0	0	450
6403	0	0	0	0	450
6404	0	0	0	0	450
6405	0	0	0	0	450
6406	0	0	0	0	450
6407	0	0	0	0	450
6408	0	0	0	0	450
6409	0	0	0	0	450
6410	0	0	0	0	450
6411	0	0	0	0	450
6412	0	0	0	0	450
6413	0	0	0	0	450
6414	0	0	0	0	450
6415	0	0	0	0	450
6416	0	0	0	0	450
6417	0	0	0	0	450
6418	0	0	0	0	450
6419	0	0	0	0	450
6420	0	0	0	0	450
6421	0	0	0	0	450
6422	0	0	0	0	450
6423	0	0	0	0	450
6424	0	0	0	0	450
6425	0	0	0	0	450
6426	0	0	0	0	450
6427	0	0	0	0	450
6428	0	0	0	0	450
6429	0	0	0	0	450
6430	0	0	0	0	450
6431	0	0	0	0	450
6432	0	0	0	0	450
6433	0	0	0	0	450
6434	0	0	0	0	450
6435	0	0	0	0	450
6436	0	0	0	0	450
6437	0	0	0	0	128
6438	0	0	0	0	349
6439	0	0	0	0	450
6440	0	0	0	0	450
6441	0	0	0	0	450
6442	0	0	0	0	450
6443	0	0	0	0	450
6444	0	0	0	0	450
6445	0	0	0	0	450
6446	0	0	0	0	450
6447	0	0	0	0	450
6448	0	0	0	0	450
6449	0	0	0	0	450
6450	0	0	0	0	450
6451	0	0	0	0	450
6452	0	0	0	0	450
6453	0	0	0	0	450
6454	0	0	0	0	450
6455	0	0	0	0	450
6456	0	0	0	0	450
6457	0	0	0	0	450
6458	0	0	0	0	450
6459	0	0	0	0	450
6460	0	0	0	0	450
6461	0	0	0	0	450
6462	0	0	0	0	450
6463	0	0	0	0	450
6464	0	0	0	0	450
6465	0	0	0	0	450
6466	0	0	0	0	450
6467	0	0	0	0	450
6468	0	0	0	0	450
6469	0	0	0	0	450
6470	0	0	0	0	450
6471	0	0	0	0	450
6472	0	0	0	0	450
6473	0	0	0	0	450
6474	0	0	0	0	450
6475	0	0	0	0	450
6476	0	0	0	0	450
6477	0	0	0	0	450
6478	0	0	0	0	450
6479	0	0	0	0	450
6480	0	0	0	0	450
6481	0	0	0	0	450
6482	0	0	0	0	450
6483	0	0	0	0	450
6484	0	0	0	0	518
6485	0	0	0	0	513
6486	0	0	0	0	508
6487	0	0	0	0	503
6488	0	0	0	0	498
6489	0	0	0	0	493
6490	0	0	0	0	305
6491	0	0	0	0	450
6492	0	0	0	0	450
6493	0	0	0	0	450
6494	0	0	0	0	450
6495	0	0	0	0	450
6496	0	0	0	0	450
6497	0	0	0	0	450
6498	0	0	0	0	450
6499	0	0	0	0	450
6500	0	0	0	0	450
6501	0	0	0	0	450
6502	0	0	0	0	450
6503	0	0	0	0	450
6504	0	0	0	0	450
6505	0	0	0	0	450
6506	0	0	0	0	450
6507	0	0	0	0	450
6508	0	0	0	0	450
6509	0	0	0	0	450
6510	0	0	0	0	450
6511	0	0	0	0	450
6512	0	0	0	0	450
6513	0	0	0	0	450
6514	0	0	0	0	450
6515	0	0	0	0	450
6516	0	0	0	0	450
6517	0	0	0	0	450
6518	0	0	0	0	450
6519	0	0	0	0	450
6520	0	0	0	0	450
6521	0	0	0	0	569
6522	0	0	0	0	564
6523	0	0	0	0	559
6524	0	0	0	0	733
6525	0	0	0	0	575
6526	0	0	0	0	570
6527	0	0	0	0	565
6528	0	0	0	0	560
6529	0	0	0	0	555
6530	0	0	0	0	550
6531	0	0	0	0	545
6532	0	0	0	0	540
6533	0	0	0	0	535
6534	0	0	0	0	530
6535	0	0	0	0	525
6536	0	0	0	0	202
6537	0	0	0	0	450
6538	0	0	0	0	450
6539	0	0	0	0	450
6540	0	0	0	0	450
6541	0	0	0	0	450
6542	0	0	0	0	450
6543	0	0	0	0	450
6544	0	0	0	0	450
6545	0	0	0	0	450
6546	0	0	0	0	450
6547	0	0	0	0	450
6548	0	0	0	0	450
6549	0	0	0	0	450
6550	0	0	0	0	450
6551	0	0	0	0	450
6552	0	0	0	0	450
6553	0	0	0	0	450
6554	0	0	0	0	450
6555	0	0	0	0	450
6556	0	0	0	0	450
6557	0	0	0	0	450
6558	0	0	0	0	702
6559	0	0	0	0	575
6560	0	0	0	0	570
6561	0	0	0	0	565
6562	0	0	0	0	560
6563	0	0	0	0	555
6564	0	0	0	0	550
6565	0	0	0	0	545
6566	0	0	0	0	540
6567	0	0	0	0	535
6568	0	0	0	0	530
6569	0	0	0	0	525
6570	0	0	0	0	520
6571	0	0	0	0	515
6572	0	0	0	0	510
6573	0	0	0	0	505
6574	0	0	0	0	678
6575	0	0	0	0	575
6576	0	0	0	0	570
6577	0	0	0	0	565
6578	0	0	0	0	560
6579	0	0	0	0	555
6580	0	0	0	0	550
6581	0	0	0	0	545
6582	0	0	0	0	540
6583	0	0	0	0	535
6584	0	0	0	0	530
6585	0	0	0	0	525
6586	0	0	0	0	520
6587	0	0	0	0	515
6588	0	0	0	0	510
6589	0	0	0	0	505
6590	0	0	0	0	500
6591	0	0	0	0	495
6592	0	0	0	0	490
6593	0	0	0	0	485
6594	0	0	0	0	480
6595	0	0	0	0	475
6596	0	0	0	0	470
6597	0	0	0	0	465
6598	0	0	0	0	460
6599	0	0	0	0	455
6600	0	0	0	0	558
6601	0	0	0	0	553
6602	0	0	0	0	548
6603	0	0	0	0	543
6604	0	0	0	0	538
6605	0	0	0	0	533
6606	0	0	0	0	528
6607	0	0	0	0	523
6608	0	0	0	0	518
6609	0	0	0	0	513
6610	0	0	0	0	508
6611	0	0	0	0	503
6612	0	0	0	0	498
6613	0	0	0	0	493
6614	0	0	0	0	488
6615	0	0	0	0	483
6616	0	0	0	0	478
6617	0	0	0	0	473
6618	0	0	0	0	468
6619	0	0	0	0	463
6620	0	0	0	0	647
6621	0	0	0	0	575
6622	0	0	0	0	570
6623	0	0	0	0	565
6624	0	0	0	0	560
6625	0	0	0	0	555
6626	0	0	0	0	550
6627	0	0	0	0	545
6628	0	0	0	0	540
6629	0	0	0	0	535
6630	0	0	0	0	530
6631	0	0	0	0	525
6632	0	0	0	0	520
6633	0	0	0	0	515
6634	0	0	0	0	510
6635	0	0	0	0	614
6636	0	0	0	0	575
6637	0	0	0	0	570
6638	0	0	0	0	565
6639	0	0	0	0	560
6640	0	0	0	0	555
6641	0	0	0	0	550
6642	0	0	0	0	545
6643	0	0	0	0	540
6644	0	0	0	0	535
6645	0	0	0	0	530
6646	0	0	0	0	525
6647	0	0	0	0	520
6648	0	0	0	0	515
6649	0	0	0	0	510
6650	0	0	0	0	505
6651	0	0	0	0	500
6652	0	0	0	0	495
6653	0	0	0	0	490
6654	0	0	0	0	485
6655	0	0	0	0	435
6656	0	0	0	0	450
6657	0	0	0	0	450
6658	0	0	0	0	450
6659	0	0	0	0	473
6660	0	0	0	0	468
6661	0	0	0	0	463
6662	0	0	0	0	458
6663	0	0	0	0	469
6664	0	0	0	0	464
6665	0	0	0	0	459
6666	0	0	0	0	454
6667	0	0	0	0	450
6668	0	0	0	0	450
6669	0	0	0	0	450
6670	0	0	0	0	450
6671	0	0	0	0	450
6672	0	0	0	0	450
6673	0	0	0	0	252
6674	0	0	0	0	450
6675	0	0	0	0	450
6676	0	0	0	0	450
6677	0	0	0	0	450
6678	0	0	0	0	450
6679	0	0	0	0	450
6680	0	0	0	0	450
6681	0	0	0	0	450
6682	0	0	0	0	450
6683	0	0	0	0	450
6684	0	0	0	0	450
6685	0	0	0	0	450
6686	0	0	0	0	450
6687	0	0	0	0	450
6688	0	0	0	0	450
6689	0	0	0	0	450
6690	0	0	0	0	450
6691	0	0	0	0	450
6692	0	0	0	0	450
6693	0	0	0	0	450
6694	0	0	0	0	450
6695	0	0	0	0	450
6696	0	0	0	0	450
6697	0	0	0	0	450
6698	0	0	0	0	450
6699	0	0	0	0	450
6700	0	0	0	0	450
6701	0	0	0	0	450
6702	0	0	0	0	450
6703	0	0	0	0	450
6704	0	0	0	0	450
6705	0	0	0	0	450
6706	0	0	0	0	450
6707	0	0	0	0	166
6708	0	0	0	0	450
6709	0	0	0	0	450
6710	0	0	0	0	450
6711	0	0	0	0	450
6712	0	0	0	0	450
6713	0	0	0	0	450
6714	0	0	0	0	450
6715	0	0	0	0	450
6716	0	0	0	0	450
6717	0	0	0	0	450
6718	0	0	0	0	450
6719	0	0	0	0	450
6720	0	0	0	0	450
6721	0	0	0	0	450
6722	0	0	0	0	450
6723	0	0	0	0	450
6724	0	0	0	0	450
6725	0	0	0	0	450
6726	0	0	0	0	450
6727	0	0	0	0	450
6728	0	0	0	0	450
6729	0	0	0	0	450
6730	0	0	0	0	450
6731	0	0	0	0	450
6732	0	0	0	0	450
6733	0	0	0	0	450
6734	0	0	0	0	450
6735	0	0	0	0	450
6736	0	0	0	0	450
6737	0	0	0	0	450
6738	0	0	0	0	450
6739	0	0	0	0	450
6740	0	0	0	0	450
6741	0	0	0	0	450
6742	0	0	0	0	450
6743	0	0	0	0	450
6744	0	0	0	0	450
6745	0	0	0	0	676
6746	0	0	0	0	575
6747	0	0	0	0	570
6748	0	0	0	0	565
6749	0	0	0	0	560
6750	0	0	0	0	555
6751	0	0	0	0	550
6752	0	0	0	0	545
6753	0	0	0	0	540
6754	0	0	0	0	535
6755	0	0	0	0	410
6756	0	0	0	0	450
6757	0	0	0	0	450
6758	0	0	0	0	450
6759	0	0	0	0	450
6760	0	0	0	0	450
6761	0	0	0	0	450
6762	0	0	0	0	450
6763	0	0	0	0	450
6764	0	0	0	0	450
6765	0	0	0	0	450
6766	0	0	0	0	450
6767	0	0	0	0	450
6768	0	0	0	0	450
6769	0	0	0	0	450
6770	0	0	0	0	450
6771	0	0	0	0	450
6772	0	0	0	0	450
6773	0	0	0	0	450
6774	0	0	0	0	450
6775	0	0	0	0	450
6776	0	0	0	0	450
6777	0	0	0	0	450
6778	0	0	0	0	450
6779	0	0	0	0	450
6780	0	0	0	0	450
6781	0	0	0	0	450
6782	0	0	0	0	450
6783	0	0	0	0	450
6784	0	0	0	0	450
6785	0	0	0	0	450
6786	0	0	0	0	450
6787	0	0	0	0	450
6788	0	0	0	0	450
6789	0	0	0	0	450
6790	0	0	0	0	450
6791	0	0	0	0	450
6792	0	0	0	0	450
6793	0	0	0	0	450
6794	0	0	0	0	450
6795	0	0	0	0	450
6796	0	0	0	0	450
6797	0	0	0	0	450
6798	0	0	0	0	450
6799	0	0	0	0	450
6800	0	0	0	0	455
6801	0	0	0	0	460
6802	0	0	0	0	465
6803	0	0	0	0	470
6804	0	0	0	0	475
6805	0	0	0	0	480
6806	0	0	0	0	485
6807	0	0	0	0	228
6808	0	0	0	0	450
6809	0	0	0	0	455
6810	0	0	0	0	460
6811	0	0	0	0	465
6812	0	0	0	0	470
6813	0	0	0	0	250
6814	0	0	0	0	450
6815	0	0	0	0	455
6816	0	0	0	0	517
6817	0	0	0	0	522
6818	0	0	0	0	527
6819	0	0	0	0	532
6820	0	0	0	0	537
6821	0	0	0	0	542
6822	0	0	0	0	547
6823	0	0	0	0	552
6824	0	0	0	0	557
6825	0	0	0	0	562
6826	0	0	0	0	567
6827	0	0	0	0	572
6828	0	0	0	0	575
6829	0	0	0	0	575
6830	0	0	0	0	575
6831	0	0	0	0	575
6832	0	0	0	0	575
6833	0	0	0	0	575
6834	0	0	0	0	575
6835	0	0	0	0	575
6836	0	0	0	0	575
6837	0	0	0	0	575
6838	0	0	0	0	575
6839	0	0	0	0	575
6840	0	0	0	0	575
6841	0	0	0	0	575
6842	0	0	0	0	575
6843	0	0	0	0	575
6844	0	0	0	0	575
6845	0	0	0	0	575
6846	0	0	0	0	575
6847	0	0	0	0	575
6848	0	0	0	0	575
6849	0	0	0	0	575
6850	0	0	0	0	575
6851	0	0	0	0	712
6852	0	0	0	0	575
6853	0	0	0	0	575
6854	0	0	0	0	575
6855	0	0	0	0	575
6856	0	0	0	0	575
6857	0	0	0	0	575
6858	0	0	0	0	575
6859	0	0	0	0	575
6860	0	0	0	0	575
6861	0	0	0	0	575
6862	0	0	0	0	575
6863	0	0	0	0	575
6864	0	0	0	0	575
6865	0	0	0	0	575
6866	0	0	0	0	575
6867	0	0	0	0	575
6868	0	0	0	0	575
6869	0	0	0	0	575
6870	0	0	0	0	575
6871	0	0	0	0	575
6872	0	0	0	0	575
6873	0	0	0	0	575
6874	0	0	0	0	575
6875	0	0	0	0	575
6876	0	0	0	0	575
6877	0	0	0	0	575
6878	0	0	0	0	575
6879	0	0	0	0	575
6880	0	0	0	0	575
6881	0	0	0	0	575
6882	0	0	0	0	575
6883	0	0	0	0	575
6884	0	0	0	0	575
6885	0	0	0	0	575
6886	0	0	0	0	575
6887	0	0	0	0	575
6888	0	0	0	0	575
6889	0	0	0	0	575
6890	0	0	0	0	575
6891	0	0	0	0	575
6892	0	0	0	0	575
6893	0	0	0	0	575
6894	0	0	0	0	575
6895	0	0	0	0	575
6896	0	0	0	0	575
6897	0	0	0	0	575
6898	0	0	0	0	575
6899	0	0	0	0	575
6900	0	0	0	0	570
6901	0	0	0	0	565
6902	0	0	0	0	560
6903	0	0	0	0	555
6904	0	0	0	0	550
6905	0	0	0	0	545
6906	0	0	0	0	540
6907	0	0	0	0	535
6908	0	0	0	0	530
6909	0	0	0	0	525
6910	0	0	0	0	520
6911	0	0	0	0	515
6912	0	0	0	0	510
6913	0	0	0	0	600
6914	0	0	0	0	575
6915	0	0	0	0	570
6916	0	0	0	0	565
6917	0	0	0	0	560
6918	0	0	0	0	555
6919	0	0	0	0	550
6920	0	0	0	0	545
6921	0	0	0	0	540
6922	0	0	0	0	535
6923	0	0	0	0	530
6924	0	0	0	0	525
6925	0	0	0	0	520
6926	0	0	0	0	515
6927	0	0	0	0	510
6928	0	0	0	0	644
6929	0	0	0	0	575
6930	0	0	0	0	570
6931	0	0	0	0	565
6932	0	0	0	0	560
6933	0	0	0	0	555
6934	0	0	0	0	550
6935	0	0	0	0	545
6936	0	0	0	0	540
6937	0	0	0	0	535
6938	0	0	0	0	530
6939	0	0	0	0	525
6940	0	0	0	0	520
6941	0	0	0	0	515
6942	0	0	0	0	510
6943	0	0	0	0	505
6944	0	0	0	0	500
6945	0	0	0	0	495
6946	0	0	0	0	490
6947	0	0	0	0	485
6948	0	0	0	0	480
6949	0	0	0	0	475
6950	0	0	0	0	470
6951	0	0	0	0	465
6952	0	0	0	0	460
6953	0	0	0	0	455
6954	0	0	0	0	450
6955	0	0	0	0	450
6956	0	0	0	0	450
6957	0	0	0	0	450
6958	0	0	0	0	450
6959	0	0	0	0	450
6960	0	0	0	0	450
6961	0	0	0	0	450
6962	0	0	0	0	450
6963	0	0	0	0	450
6964	0	0	0	0	450
6965	0	0	0	0	450
6966	0	0	0	0	450
6967	0	0	0	0	450
6968	0	0	0	0	450
6969	0	0	0	0	430
6970	0	0	0	0	450
6971	0	0	0	0	450
6972	0	0	0	0	450
6973	0	0	0	0	450
6974	0	0	0	0	450
6975	0	0	0	0	450
6976	0	0	0	0	450
6977	0	0	0	0	450
6978	0	0	0	0	450
6979	0	0	0	0	450
6980	0	0	0	0	450
6981	0	0	0	0	450
6982	0	0	0	0	450
6983	0	0	0	0	450
6984	0	0	0	0	450
6985	0	0	0	0	589
6986	0	0	0	0	575
6987	0	0	0	0	570
6988	0	0	0	0	565
6989	0	0	0	0	560
6990	0	0	0	0	555
6991	0	0	0	0	550
6992	0	0	0	0	545
6993	0	0	0	0	540
6994	0	0	0	0	535
6995	0	0	0	0	530
6996	0	0	0	0	741
6997	0	0	0	0	575
6998	0	0	0	0	570
6999	0	0	0	0	565
7000	0	0	0	0	560
7001	0	0	0	0	555
7002	0	0	0	0	550
7003	0	0	0	0	545
7004	0	0	0	0	540
7005	0	0	0	0	535
7006	0	0	0	0	530
7007	0	0	0	0	525
7008	0	0	0	0	520
7009	0	0	0	0	515
7010	0	0	0	0	510
7011	0	0	0	0	505
7012	0	0	0	0	500
7013	0	0	0	0	495
7014	0	0	0	0	490
7015	0	0	0	0	485
7016	0	0	0	0	480
7017	0	0	0	0	475
7018	0	0	0	0	470
7019	0	0	0	0	465
7020	0	0	0	0	460
7021	0	0	0	0	455
7022	0	0	0	0	450
7023	0	0	0	0	450
7024	0	0	0	0	450
7025	0	0	0	0	450
7026	0	0	0	0	450
7027	0	0	0	0	450
7028	0	0	0	0	450
7029	0	0	0	0	450
7030	0	0	0	0	450
7031	0	0	0	0	450
7032	0	0	0	0	450
7033	0	0	0	0	450
7034	0	0	0	0	450
7035	0	0	0	0	356
7036	0	0	0	0	450
7037	0	0	0	0	450
7038	0	0	0	0	450
7039	0	0	0	0	450
7040	0	0	0	0	375
7041	0	0	0	0	450
7042	0	0	0	0	450
7043	0	0	0	0	450
7044	0	0	0	0	450
7045	0	0	0	0	450
7046	0	0	0	0	450
7047	0	0	0	0	450
7048	0	0	0	0	450
7049	0	0	0	0	450
7050	0	0	0	0	450
7051	0	0	0	0	450
7052	0	0	0	0	739
7053	0	0	0	0	575
7054	0	0	0	0	570
7055	0	0	0	0	565
7056	0	0	0	0	560
7057	0	0	0	0	555
7058	0	0	0	0	550
7059	0	0	0	0	545
7060	0	0	0	0	540
7061	0	0	0	0	535
7062	0	0	0	0	530
7063	0	0	0	0	525
7064	0	0	0	0	520
7065	0	0	0	0	678
7066	0	0	0	0	575
7067	0	0	0	0	570
7068	0	0	0	0	565
7069	0	0	0	0	560
7070	0	0	0	0	555
7071	0	0	0	0	550
7072	0	0	0	0	545
