# OpenSignals Text File Format. Version 1
# {"84:BA:20:5E:FF:7F": {"position": 0, "device": "bitalino_rev", "device name": "84:BA:20:5E:FF:7F", "device connection": "BTH84:BA:20:5E:FF:7F", "sampling rate": 100, "resolution": [4, 1, 1, 1, 1, 10], "firmware version": 1282, "comments": "", "keywords": "", "mode": 0, "sync interval": 2, "date": "2024-3-6", "time": "18:51:36.613", "channels": [1], "sensor": ["EMGBITREV"], "label": ["A1"], "column": ["nSeq", "I1", "I2", "O1", "O2", "A1"], "special": [{}], "digital IO": [0, 0, 1, 1]}}
# EndOfHeader
0	0	0	0	0	480	
1	0	0	0	0	542	
2	0	0	0	0	479	
3	0	0	0	0	543	
4	0	0	0	0	480	
5	0	0	0	0	544	
6	0	0	0	0	479	
7	0	0	0	0	541	
8	0	0	0	0	482	
9	0	0	0	0	539	
10	0	0	0	0	477	
11	0	0	0	0	542	
12	0	0	0	0	480	
13	0	0	0	0	542	
14	0	0	0	0	478	
15	0	0	0	0	542	
0	0	0	0	0	479	
1	0	0	0	0	541	
2	0	0	0	0	479	
3	0	0	0	0	542
0	0	0	0	0	485
1	0	0	0	0	490
2	0	0	0	0	495
3	0	0	0	0	378
4	0	0	0	0	450
5	0	0	0	0	455
6	0	0	0	0	460
7	0	0	0	0	465
8	0	0	0	0	244
9	0	0	0	0	450
10	0	0	0	0	455
11	0	0	0	0	460
12	0	0	0	0	465
13	0	0	0	0	470
14	0	0	0	0	475
15	0	0	0	0	180
16	0	0	0	0	450
17	0	0	0	0	455
18	0	0	0	0	460
19	0	0	0	0	465
20	0	0	0	0	296
21	0	0	0	0	450
22	0	0	0	0	455
23	0	0	0	0	460
24	0	0	0	0	465
25	0	0	0	0	470
26	0	0	0	0	475
27	0	0	0	0	480
28	0	0	0	0	485
29	0	0	0	0	490
30	0	0	0	0	495
31	0	0	0	0	500
32	0	0	0	0	483
33	0	0	0	0	488
34	0	0	0	0	493
35	0	0	0	0	498
36	0	0	0	0	503
37	0	0	0	0	508
38	0	0	0	0	513
39	0	0	0	0	518
40	0	0	0	0	523
41	0	0	0	0	528
42	0	0	0	0	533
43	0	0	0	0	538
44	0	0	0	0	543
45	0	0	0	0	548
46	0	0	0	0	553
47	0	0	0	0	558
48	0	0	0	0	563
49	0	0	0	0	568
50	0	0	0	0	573
51	0	0	0	0	575
52	0	0	0	0	575
53	0	0	0	0	575
54	0	0	0	0	575
55	0	0	0	0	575
56	0	0	0	0	562
57	0	0	0	0	567
58	0	0	0	0	572
59	0	0	0	0	575
60	0	0	0	0	575
61	0	0	0	0	575
62	0	0	0	0	575
63	0	0	0	0	575
64	0	0	0	0	575
65	0	0	0	0	575
66	0	0	0	0	575
67	0	0	0	0	575
68	0	0	0	0	575
69	0	0	0	0	575
70	0	0	0	0	575
71	0	0	0	0	575
72	0	0	0	0	575
73	0	0	0	0	575
74	0	0	0	0	575
75	0	0	0	0	575
76	0	0	0	0	575
77	0	0	0	0	475
78	0	0	0	0	480
79	0	0	0	0	485
80	0	0	0	0	490
81	0	0	0	0	495
82	0	0	0	0	500
83	0	0	0	0	505
84	0	0	0	0	510
85	0	0	0	0	515
86	0	0	0	0	520
87	0	0	0	0	525
88	0	0	0	0	236
89	0	0	0	0	450
90	0	0	0	0	455
91	0	0	0	0	460
92	0	0	0	0	465
93	0	0	0	0	470
94	0	0	0	0	475
95	0	0	0	0	480
96	0	0	0	0	485
97	0	0	0	0	490
98	0	0	0	0	495
99	0	0	0	0	500
100	0	0	0	0	495
101	0	0	0	0	490
102	0	0	0	0	485
103	0	0	0	0	480
104	0	0	0	0	475
105	0	0	0	0	470
106	0	0	0	0	465
107	0	0	0	0	460
108	0	0	0	0	455
109	0	0	0	0	450
110	0	0	0	0	450
111	0	0	0	0	450
112	0	0	0	0	450
113	0	0	0	0	450
114	0	0	0	0	450
115	0	0	0	0	450
116	0	0	0	0	450
117	0	0	0	0	450
118	0	0	0	0	450
119	0	0	0	0	450
120	0	0	0	0	450
121	0	0	0	0	450
122	0	0	0	0	450
123	0	0	0	0	450
124	0	0	0	0	450
125	0	0	0	0	450
126	0	0	0	0	450
127	0	0	0	0	450
128	0	0	0	0	450
129	0	0	0	0	450
130	0	0	0	0	450
131	0	0	0	0	450
132	0	0	0	0	450
133	0	0	0	0	450
134	0	0	0	0	450
135	0	0	0	0	450
136	0	0	0	0	450
137	0	0	0	0	450
138	0	0	0	0	450
139	0	0	0	0	450
140	0	0	0	0	450
141	0	0	0	0	450
142	0	0	0	0	450
143	0	0	0	0	450
144	0	0	0	0	450
145	0	0	0	0	450
146	0	0	0	0	450
147	0	0	0	0	450
148	0	0	0	0	450
149	0	0	0	0	247
150	0	0	0	0	450
151	0	0	0	0	450
152	0	0	0	0	450
153	0	0	0	0	450
154	0	0	0	0	450
155	0	0	0	0	450
156	0	0	0	0	450
157	0	0	0	0	450
158	0	0	0	0	760
159	0	0	0	0	575
160	0	0	0	0	570
161	0	0	0	0	291
162	0	0	0	0	450
163	0	0	0	0	450
164	0	0	0	0	561
165	0	0	0	0	556
166	0	0	0	0	551
167	0	0	0	0	546
168	0	0	0	0	541
169	0	0	0	0	536
170	0	0	0	0	531
171	0	0	0	0	526
172	0	0	0	0	521
173	0	0	0	0	516
174	0	0	0	0	511
175	0	0	0	0	215
176	0	0	0	0	450
177	0	0	0	0	450
178	0	0	0	0	450
179	0	0	0	0	450
180	0	0	0	0	450
181	0	0	0	0	450
182	0	0	0	0	450
183	0	0	0	0	450
184	0	0	0	0	794
185	0	0	0	0	575
186	0	0	0	0	570
187	0	0	0	0	565
188	0	0	0	0	560
189	0	0	0	0	555
190	0	0	0	0	550
191	0	0	0	0	545
192	0	0	0	0	540
193	0	0	0	0	535
194	0	0	0	0	530
195	0	0	0	0	525
196	0	0	0	0	520
197	0	0	0	0	515
198	0	0	0	0	510
199	0	0	0	0	505
200	0	0	0	0	500
201	0	0	0	0	495
202	0	0	0	0	490
203	0	0	0	0	485
204	0	0	0	0	480
205	0	0	0	0	475
206	0	0	0	0	470
207	0	0	0	0	465
208	0	0	0	0	460
209	0	0	0	0	455
210	0	0	0	0	450
211	0	0	0	0	450
212	0	0	0	0	450
213	0	0	0	0	450
214	0	0	0	0	450
215	0	0	0	0	450
216	0	0	0	0	450
217	0	0	0	0	450
218	0	0	0	0	450
219	0	0	0	0	450
220	0	0	0	0	450
221	0	0	0	0	450
222	0	0	0	0	450
223	0	0	0	0	450
224	0	0	0	0	450
225	0	0	0	0	450
226	0	0	0	0	781
227	0	0	0	0	575
228	0	0	0	0	570
229	0	0	0	0	565
230	0	0	0	0	560
231	0	0	0	0	555
232	0	0	0	0	550
233	0	0	0	0	545
234	0	0	0	0	540
235	0	0	0	0	535
236	0	0	0	0	530
237	0	0	0	0	525
238	0	0	0	0	520
239	0	0	0	0	515
240	0	0	0	0	510
241	0	0	0	0	505
242	0	0	0	0	500
243	0	0	0	0	495
244	0	0	0	0	490
245	0	0	0	0	485
246	0	0	0	0	480
247	0	0	0	0	475
248	0	0	0	0	470
249	0	0	0	0	465
250	0	0	0	0	460
251	0	0	0	0	455
252	0	0	0	0	450
253	0	0	0	0	450
254	0	0	0	0	450
255	0	0	0	0	450
256	0	0	0	0	450
257	0	0	0	0	132
258	0	0	0	0	450
259	0	0	0	0	450
260	0	0	0	0	450
261	0	0	0	0	450
262	0	0	0	0	450
263	0	0	0	0	111
264	0	0	0	0	450
265	0	0	0	0	450
266	0	0	0	0	450
267	0	0	0	0	450
268	0	0	0	0	450
269	0	0	0	0	450
270	0	0	0	0	450
271	0	0	0	0	450
272	0	0	0	0	450
273	0	0	0	0	450
274	0	0	0	0	450
275	0	0	0	0	450
276	0	0	0	0	450
277	0	0	0	0	450
278	0	0	0	0	450
279	0	0	0	0	450
280	0	0	0	0	450
281	0	0	0	0	450
282	0	0	0	0	450
283	0	0	0	0	450
284	0	0	0	0	450
285	0	0	0	0	450
286	0	0	0	0	450
287	0	0	0	0	450
288	0	0	0	0	450
289	0	0	0	0	450
290	0	0	0	0	450
291	0	0	0	0	450
292	0	0	0	0	450
293	0	0	0	0	450
294	0	0	0	0	450
295	0	0	0	0	450
296	0	0	0	0	450
297	0	0	0	0	450
298	0	0	0	0	450
299	0	0	0	0	450
300	0	0	0	0	455
301	0	0	0	0	460
302	0	0	0	0	465
303	0	0	0	0	470
304	0	0	0	0	475
305	0	0	0	0	480
306	0	0	0	0	485
307	0	0	0	0	490
308	0	0	0	0	495
309	0	0	0	0	500
310	0	0	0	0	505
311	0	0	0	0	510
312	0	0	0	0	515
313	0	0	0	0	520
314	0	0	0	0	525
315	0	0	0	0	530
316	0	0	0	0	535
317	0	0	0	0	540
318	0	0	0	0	545
319	0	0	0	0	550
320	0	0	0	0	555
321	0	0	0	0	560
322	0	0	0	0	565
323	0	0	0	0	570
324	0	0	0	0	575
325	0	0	0	0	575
326	0	0	0	0	575
327	0	0	0	0	575
328	0	0	0	0	575
329	0	0	0	0	575
330	0	0	0	0	575
331	0	0	0	0	575
332	0	0	0	0	575
333	0	0	0	0	575
334	0	0	0	0	575
335	0	0	0	0	575
336	0	0	0	0	575
337	0	0	0	0	575
338	0	0	0	0	575
339	0	0	0	0	575
340	0	0	0	0	575
341	0	0	0	0	575
342	0	0	0	0	575
343	0	0	0	0	575
344	0	0	0	0	575
345	0	0	0	0	575
346	0	0	0	0	575
347	0	0	0	0	575
348	0	0	0	0	127
349	0	0	0	0	450
350	0	0	0	0	667
351	0	0	0	0	575
352	0	0	0	0	575
353	0	0	0	0	575
354	0	0	0	0	575
355	0	0	0	0	288
356	0	0	0	0	450
357	0	0	0	0	455
358	0	0	0	0	460
359	0	0	0	0	465
360	0	0	0	0	470
361	0	0	0	0	475
362	0	0	0	0	480
363	0	0	0	0	485
364	0	0	0	0	490
365	0	0	0	0	495
366	0	0	0	0	500
367	0	0	0	0	505
368	0	0	0	0	510
369	0	0	0	0	515
370	0	0	0	0	520
371	0	0	0	0	525
372	0	0	0	0	530
373	0	0	0	0	535
374	0	0	0	0	540
375	0	0	0	0	545
376	0	0	0	0	550
377	0	0	0	0	555
378	0	0	0	0	560
379	0	0	0	0	565
380	0	0	0	0	570
381	0	0	0	0	575
382	0	0	0	0	575
383	0	0	0	0	653
384	0	0	0	0	575
385	0	0	0	0	575
386	0	0	0	0	575
387	0	0	0	0	575
388	0	0	0	0	575
389	0	0	0	0	575
390	0	0	0	0	575
391	0	0	0	0	575
392	0	0	0	0	575
393	0	0	0	0	575
394	0	0	0	0	575
395	0	0	0	0	575
396	0	0	0	0	575
397	0	0	0	0	575
398	0	0	0	0	575
399	0	0	0	0	575
400	0	0	0	0	570
401	0	0	0	0	565
402	0	0	0	0	560
403	0	0	0	0	555
404	0	0	0	0	550
405	0	0	0	0	545
406	0	0	0	0	540
407	0	0	0	0	535
408	0	0	0	0	572
409	0	0	0	0	567
410	0	0	0	0	562
411	0	0	0	0	557
412	0	0	0	0	504
413	0	0	0	0	499
414	0	0	0	0	494
415	0	0	0	0	489
416	0	0	0	0	484
417	0	0	0	0	479
418	0	0	0	0	474
419	0	0	0	0	469
420	0	0	0	0	464
421	0	0	0	0	459
422	0	0	0	0	454
423	0	0	0	0	450
424	0	0	0	0	450
425	0	0	0	0	450
426	0	0	0	0	450
427	0	0	0	0	450
428	0	0	0	0	450
429	0	0	0	0	450
430	0	0	0	0	450
431	0	0	0	0	450
432	0	0	0	0	450
433	0	0	0	0	450
434	0	0	0	0	450
435	0	0	0	0	450
436	0	0	0	0	450
437	0	0	0	0	450
438	0	0	0	0	450
439	0	0	0	0	642
440	0	0	0	0	575
441	0	0	0	0	570
442	0	0	0	0	565
443	0	0	0	0	560
444	0	0	0	0	555
445	0	0	0	0	550
446	0	0	0	0	545
447	0	0	0	0	540
448	0	0	0	0	535
449	0	0	0	0	530
450	0	0	0	0	525
451	0	0	0	0	520
452	0	0	0	0	515
453	0	0	0	0	510
454	0	0	0	0	505
455	0	0	0	0	500
456	0	0	0	0	495
457	0	0	0	0	490
458	0	0	0	0	485
459	0	0	0	0	480
460	0	0	0	0	475
461	0	0	0	0	294
462	0	0	0	0	133
463	0	0	0	0	450
464	0	0	0	0	450
465	0	0	0	0	450
466	0	0	0	0	450
467	0	0	0	0	450
468	0	0	0	0	450
469	0	0	0	0	450
470	0	0	0	0	450
471	0	0	0	0	450
472	0	0	0	0	450
473	0	0	0	0	199
474	0	0	0	0	450
475	0	0	0	0	450
476	0	0	0	0	450
477	0	0	0	0	450
478	0	0	0	0	450
479	0	0	0	0	450
480	0	0	0	0	450
481	0	0	0	0	450
482	0	0	0	0	450
483	0	0	0	0	450
484	0	0	0	0	450
485	0	0	0	0	450
486	0	0	0	0	260
487	0	0	0	0	450
488	0	0	0	0	450
489	0	0	0	0	450
490	0	0	0	0	450
491	0	0	0	0	450
492	0	0	0	0	450
493	0	0	0	0	450
494	0	0	0	0	450
495	0	0	0	0	450
496	0	0	0	0	450
497	0	0	0	0	450
498	0	0	0	0	450
499	0	0	0	0	450
500	0	0	0	0	450
501	0	0	0	0	450
502	0	0	0	0	450
503	0	0	0	0	450
504	0	0	0	0	450
505	0	0	0	0	450
506	0	0	0	0	450
507	0	0	0	0	450
508	0	0	0	0	450
509	0	0	0	0	450
510	0	0	0	0	450
511	0	0	0	0	450
512	0	0	0	0	450
513	0	0	0	0	450
514	0	0	0	0	450
515	0	0	0	0	450
516	0	0	0	0	450
517	0	0	0	0	450
518	0	0	0	0	450
519	0	0	0	0	450
520	0	0	0	0	450
521	0	0	0	0	450
522	0	0	0	0	450
523	0	0	0	0	450
524	0	0	0	0	450
525	0	0	0	0	450
526	0	0	0	0	450
527	0	0	0	0	450
528	0	0	0	0	450
529	0	0	0	0	450
530	0	0	0	0	450
531	0	0	0	0	450
532	0	0	0	0	450
533	0	0	0	0	450
534	0	0	0	0	450
535	0	0	0	0	450
536	0	0	0	0	450
537	0	0	0	0	450
538	0	0	0	0	450
539	0	0	0	0	450
540	0	0	0	0	450
541	0	0	0	0	450
542	0	0	0	0	450
543	0	0	0	0	450
544	0	0	0	0	450
545	0	0	0	0	450
546	0	0	0	0	450
547	0	0	0	0	450
548	0	0	0	0	450
549	0	0	0	0	450
550	0	0	0	0	450
551	0	0	0	0	450
552	0	0	0	0	450
553	0	0	0	0	450
554	0	0	0	0	450
555	0	0	0	0	450
556	0	0	0	0	450
557	0	0	0	0	450
558	0	0	0	0	450
559	0	0	0	0	450
560	0	0	0	0	450
561	0	0	0	0	450
562	0	0	0	0	450
563	0	0	0	0	450
564	0	0	0	0	450
565	0	0	0	0	450
566	0	0	0	0	450
567	0	0	0	0	450
568	0	0	0	0	130
569	0	0	0	0	450
570	0	0	0	0	450
571	0	0	0	0	450
572	0	0	0	0	450
573	0	0	0	0	450
574	0	0	0	0	450
575	0	0	0	0	450
576	0	0	0	0	450
577	0	0	0	0	450
578	0	0	0	0	450
579	0	0	0	0	450
580	0	0	0	0	450
581	0	0	0	0	450
582	0	0	0	0	450
583	0	0	0	0	502
584	0	0	0	0	497
585	0	0	0	0	492
586	0	0	0	0	749
587	0	0	0	0	575
588	0	0	0	0	570
589	0	0	0	0	565
590	0	0	0	0	560
591	0	0	0	0	555
592	0	0	0	0	550
593	0	0	0	0	545
594	0	0	0	0	540
595	0	0	0	0	535
596	0	0	0	0	530
597	0	0	0	0	525
598	0	0	0	0	520
599	0	0	0	0	515
600	0	0	0	0	510
601	0	0	0	0	505
602	0	0	0	0	500
603	0	0	0	0	495
604	0	0	0	0	490
605	0	0	0	0	138
606	0	0	0	0	450
607	0	0	0	0	450
608	0	0	0	0	450
609	0	0	0	0	122
610	0	0	0	0	450
611	0	0	0	0	450
612	0	0	0	0	127
613	0	0	0	0	450
614	0	0	0	0	450
615	0	0	0	0	450
616	0	0	0	0	450
617	0	0	0	0	450
618	0	0	0	0	450
619	0	0	0	0	450
620	0	0	0	0	450
621	0	0	0	0	450
622	0	0	0	0	450
623	0	0	0	0	450
624	0	0	0	0	450
625	0	0	0	0	450
626	0	0	0	0	450
627	0	0	0	0	450
628	0	0	0	0	450
629	0	0	0	0	450
630	0	0	0	0	450
631	0	0	0	0	450
632	0	0	0	0	450
633	0	0	0	0	450
634	0	0	0	0	450
635	0	0	0	0	450
636	0	0	0	0	450
637	0	0	0	0	450
638	0	0	0	0	211
639	0	0	0	0	450
640	0	0	0	0	450
641	0	0	0	0	450
642	0	0	0	0	450
643	0	0	0	0	450
644	0	0	0	0	450
645	0	0	0	0	450
646	0	0	0	0	450
647	0	0	0	0	450
648	0	0	0	0	450
649	0	0	0	0	450
650	0	0	0	0	450
651	0	0	0	0	450
652	0	0	0	0	450
653	0	0	0	0	450
654	0	0	0	0	450
655	0	0	0	0	450
656	0	0	0	0	450
657	0	0	0	0	450
658	0	0	0	0	450
659	0	0	0	0	665
660	0	0	0	0	575
661	0	0	0	0	570
662	0	0	0	0	434
663	0	0	0	0	450
664	0	0	0	0	450
665	0	0	0	0	167
666	0	0	0	0	450
667	0	0	0	0	450
668	0	0	0	0	450
669	0	0	0	0	450
670	0	0	0	0	450
671	0	0	0	0	450
672	0	0	0	0	450
673	0	0	0	0	450
674	0	0	0	0	450
675	0	0	0	0	450
676	0	0	0	0	450
677	0	0	0	0	450
678	0	0	0	0	450
679	0	0	0	0	450
680	0	0	0	0	450
681	0	0	0	0	450
682	0	0	0	0	450
683	0	0	0	0	450
684	0	0	0	0	450
685	0	0	0	0	450
686	0	0	0	0	450
687	0	0	0	0	450
688	0	0	0	0	450
689	0	0	0	0	450
690	0	0	0	0	450
691	0	0	0	0	450
692	0	0	0	0	450
693	0	0	0	0	450
694	0	0	0	0	450
695	0	0	0	0	450
696	0	0	0	0	450
697	0	0	0	0	450
698	0	0	0	0	450
699	0	0	0	0	450
700	0	0	0	0	455
701	0	0	0	0	460
702	0	0	0	0	465
703	0	0	0	0	470
704	0	0	0	0	475
705	0	0	0	0	480
706	0	0	0	0	485
707	0	0	0	0	490
708	0	0	0	0	495
709	0	0	0	0	500
710	0	0	0	0	505
711	0	0	0	0	510
712	0	0	0	0	234
713	0	0	0	0	450
714	0	0	0	0	455
715	0	0	0	0	460
716	0	0	0	0	465
717	0	0	0	0	470
718	0	0	0	0	475
719	0	0	0	0	480
720	0	0	0	0	485
721	0	0	0	0	490
722	0	0	0	0	495
723	0	0	0	0	500
724	0	0	0	0	505
725	0	0	0	0	510
726	0	0	0	0	515
727	0	0	0	0	520
728	0	0	0	0	525
729	0	0	0	0	530
730	0	0	0	0	535
731	0	0	0	0	540
732	0	0	0	0	545
733	0	0	0	0	550
734	0	0	0	0	555
735	0	0	0	0	560
736	0	0	0	0	565
737	0	0	0	0	570
738	0	0	0	0	575
739	0	0	0	0	575
740	0	0	0	0	575
741	0	0	0	0	575
742	0	0	0	0	575
743	0	0	0	0	575
744	0	0	0	0	575
745	0	0	0	0	575
746	0	0	0	0	575
747	0	0	0	0	575
748	0	0	0	0	575
749	0	0	0	0	575
750	0	0	0	0	575
751	0	0	0	0	575
752	0	0	0	0	575
753	0	0	0	0	575
754	0	0	0	0	575
755	0	0	0	0	575
756	0	0	0	0	575
757	0	0	0	0	575
758	0	0	0	0	575
759	0	0	0	0	575
760	0	0	0	0	575
761	0	0	0	0	575
762	0	0	0	0	575
763	0	0	0	0	575
764	0	0	0	0	575
765	0	0	0	0	575
766	0	0	0	0	575
767	0	0	0	0	575
768	0	0	0	0	575
769	0	0	0	0	575
770	0	0	0	0	575
771	0	0	0	0	575
772	0	0	0	0	575
773	0	0	0	0	575
774	0	0	0	0	575
775	0	0	0	0	575
776	0	0	0	0	575
777	0	0	0	0	575
778	0	0	0	0	575
779	0	0	0	0	575
780	0	0	0	0	575
781	0	0	0	0	465
782	0	0	0	0	470
783	0	0	0	0	475
784	0	0	0	0	480
785	0	0	0	0	485
786	0	0	0	0	490
787	0	0	0	0	495
788	0	0	0	0	500
789	0	0	0	0	505
790	0	0	0	0	510
791	0	0	0	0	515
792	0	0	0	0	520
793	0	0	0	0	525
794	0	0	0	0	530
795	0	0	0	0	535
796	0	0	0	0	540
797	0	0	0	0	545
798	0	0	0	0	550
799	0	0	0	0	555
800	0	0	0	0	560
801	0	0	0	0	565
802	0	0	0	0	570
803	0	0	0	0	575
804	0	0	0	0	183
805	0	0	0	0	450
806	0	0	0	0	455
807	0	0	0	0	460
808	0	0	0	0	465
809	0	0	0	0	470
810	0	0	0	0	475
811	0	0	0	0	480
812	0	0	0	0	485
813	0	0	0	0	490
814	0	0	0	0	495
815	0	0	0	0	500
816	0	0	0	0	505
817	0	0	0	0	510
818	0	0	0	0	515
819	0	0	0	0	520
820	0	0	0	0	525
821	0	0	0	0	530
822	0	0	0	0	535
823	0	0	0	0	540
824	0	0	0	0	545
825	0	0	0	0	550
826	0	0	0	0	555
827	0	0	0	0	560
828	0	0	0	0	565
829	0	0	0	0	570
830	0	0	0	0	575
831	0	0	0	0	575
832	0	0	0	0	575
833	0	0	0	0	575
834	0	0	0	0	575
835	0	0	0	0	690
836	0	0	0	0	575
837	0	0	0	0	575
838	0	0	0	0	575
839	0	0	0	0	575
840	0	0	0	0	575
841	0	0	0	0	575
842	0	0	0	0	575
843	0	0	0	0	575
844	0	0	0	0	575
845	0	0	0	0	575
846	0	0	0	0	575
847	0	0	0	0	575
848	0	0	0	0	575
849	0	0	0	0	575
850	0	0	0	0	575
851	0	0	0	0	575
852	0	0	0	0	575
853	0	0	0	0	575
854	0	0	0	0	575
855	0	0	0	0	575
856	0	0	0	0	575
857	0	0	0	0	616
858	0	0	0	0	575
859	0	0	0	0	575
860	0	0	0	0	575
861	0	0	0	0	170
862	0	0	0	0	450
863	0	0	0	0	455
864	0	0	0	0	460
865	0	0	0	0	465
866	0	0	0	0	470
867	0	0	0	0	475
868	0	0	0	0	480
869	0	0	0	0	485
870	0	0	0	0	490
871	0	0	0	0	495
872	0	0	0	0	500
873	0	0	0	0	468
874	0	0	0	0	473
875	0	0	0	0	478
876	0	0	0	0	483
877	0	0	0	0	488
878	0	0	0	0	493
879	0	0	0	0	498
880	0	0	0	0	503
881	0	0	0	0	508
882	0	0	0	0	513
883	0	0	0	0	518
884	0	0	0	0	523
885	0	0	0	0	528
886	0	0	0	0	533
887	0	0	0	0	538
888	0	0	0	0	543
889	0	0	0	0	548
890	0	0	0	0	553
891	0	0	0	0	558
892	0	0	0	0	563
893	0	0	0	0	568
894	0	0	0	0	573
895	0	0	0	0	575
896	0	0	0	0	575
897	0	0	0	0	575
898	0	0	0	0	575
899	0	0	0	0	127
900	0	0	0	0	450
901	0	0	0	0	455
902	0	0	0	0	460
903	0	0	0	0	465
904	0	0	0	0	470
905	0	0	0	0	475
906	0	0	0	0	480
907	0	0	0	0	485
908	0	0	0	0	490
909	0	0	0	0	273
910	0	0	0	0	450
911	0	0	0	0	455
912	0	0	0	0	460
913	0	0	0	0	465
914	0	0	0	0	470
915	0	0	0	0	475
916	0	0	0	0	480
917	0	0	0	0	485
918	0	0	0	0	490
919	0	0	0	0	495
920	0	0	0	0	500
921	0	0	0	0	505
922	0	0	0	0	510
923	0	0	0	0	515
924	0	0	0	0	714
925	0	0	0	0	575
926	0	0	0	0	575
927	0	0	0	0	575
928	0	0	0	0	575
929	0	0	0	0	575
930	0	0	0	0	575
931	0	0	0	0	575
932	0	0	0	0	575
933	0	0	0	0	575
934	0	0	0	0	575
935	0	0	0	0	337
936	0	0	0	0	450
937	0	0	0	0	455
938	0	0	0	0	460
939	0	0	0	0	465
940	0	0	0	0	470
941	0	0	0	0	475
942	0	0	0	0	480
943	0	0	0	0	485
944	0	0	0	0	490
945	0	0	0	0	495
946	0	0	0	0	500
947	0	0	0	0	505
948	0	0	0	0	450
949	0	0	0	0	455
950	0	0	0	0	460
951	0	0	0	0	525
952	0	0	0	0	530
953	0	0	0	0	519
954	0	0	0	0	524
955	0	0	0	0	529
956	0	0	0	0	534
957	0	0	0	0	539
958	0	0	0	0	544
959	0	0	0	0	549
960	0	0	0	0	554
961	0	0	0	0	559
962	0	0	0	0	564
963	0	0	0	0	569
964	0	0	0	0	574
965	0	0	0	0	575
966	0	0	0	0	614
967	0	0	0	0	575
968	0	0	0	0	575
969	0	0	0	0	575
970	0	0	0	0	575
971	0	0	0	0	575
972	0	0	0	0	575
973	0	0	0	0	575
974	0	0	0	0	575
975	0	0	0	0	575
976	0	0	0	0	575
977	0	0	0	0	575
978	0	0	0	0	575
979	0	0	0	0	575
980	0	0	0	0	575
981	0	0	0	0	575
982	0	0	0	0	575
983	0	0	0	0	575
984	0	0	0	0	575
985	0	0	0	0	575
986	0	0	0	0	575
987	0	0	0	0	575
988	0	0	0	0	575
989	0	0	0	0	575
990	0	0	0	0	575
991	0	0	0	0	575
992	0	0	0	0	575
993	0	0	0	0	575
994	0	0	0	0	575
995	0	0	0	0	575
996	0	0	0	0	575
997	0	0	0	0	575
998	0	0	0	0	575
999	0	0	0	0	575
1000	0	0	0	0	570
1001	0	0	0	0	565
1002	0	0	0	0	560
1003	0	0	0	0	555
1004	0	0	0	0	550
1005	0	0	0	0	545
1006	0	0	0	0	540
1007	0	0	0	0	535
1008	0	0	0	0	530
1009	0	0	0	0	525
1010	0	0	0	0	520
1011	0	0	0	0	515
1012	0	0	0	0	510
1013	0	0	0	0	505
1014	0	0	0	0	500
1015	0	0	0	0	495
1016	0	0	0	0	490
1017	0	0	0	0	485
1018	0	0	0	0	480
1019	0	0	0	0	475
1020	0	0	0	0	470
1021	0	0	0	0	465
1022	0	0	0	0	460
1023	0	0	0	0	455
1024	0	0	0	0	450
1025	0	0	0	0	450
1026	0	0	0	0	450
1027	0	0	0	0	450
1028	0	0	0	0	450
1029	0	0	0	0	254
1030	0	0	0	0	674
1031	0	0	0	0	575
1032	0	0	0	0	570
1033	0	0	0	0	565
1034	0	0	0	0	560
1035	0	0	0	0	555
1036	0	0	0	0	375
1037	0	0	0	0	450
1038	0	0	0	0	450
1039	0	0	0	0	450
1040	0	0	0	0	450
1041	0	0	0	0	415
1042	0	0	0	0	450
1043	0	0	0	0	450
1044	0	0	0	0	450
1045	0	0	0	0	450
1046	0	0	0	0	450
1047	0	0	0	0	450
1048	0	0	0	0	450
1049	0	0	0	0	450
1050	0	0	0	0	450
1051	0	0	0	0	450
1052	0	0	0	0	450
1053	0	0	0	0	450
1054	0	0	0	0	450
1055	0	0	0	0	726
1056	0	0	0	0	575
1057	0	0	0	0	570
1058	0	0	0	0	498
1059	0	0	0	0	493
1060	0	0	0	0	488
1061	0	0	0	0	483
1062	0	0	0	0	478
1063	0	0	0	0	473
1064	0	0	0	0	468
1065	0	0	0	0	463
1066	0	0	0	0	458
1067	0	0	0	0	453
1068	0	0	0	0	450
1069	0	0	0	0	450
1070	0	0	0	0	450
1071	0	0	0	0	450
1072	0	0	0	0	450
1073	0	0	0	0	450
1074	0	0	0	0	450
1075	0	0	0	0	450
1076	0	0	0	0	450
1077	0	0	0	0	559
1078	0	0	0	0	554
1079	0	0	0	0	549
1080	0	0	0	0	544
1081	0	0	0	0	539
1082	0	0	0	0	534
1083	0	0	0	0	529
1084	0	0	0	0	524
1085	0	0	0	0	519
1086	0	0	0	0	514
1087	0	0	0	0	509
1088	0	0	0	0	504
1089	0	0	0	0	499
1090	0	0	0	0	494
1091	0	0	0	0	489
1092	0	0	0	0	484
1093	0	0	0	0	479
1094	0	0	0	0	474
1095	0	0	0	0	469
1096	0	0	0	0	464
1097	0	0	0	0	459
1098	0	0	0	0	454
1099	0	0	0	0	450
1100	0	0	0	0	450
1101	0	0	0	0	450
1102	0	0	0	0	450
1103	0	0	0	0	450
1104	0	0	0	0	790
1105	0	0	0	0	575
1106	0	0	0	0	570
1107	0	0	0	0	565
1108	0	0	0	0	560
1109	0	0	0	0	555
1110	0	0	0	0	550
1111	0	0	0	0	545
1112	0	0	0	0	540
1113	0	0	0	0	535
1114	0	0	0	0	530
1115	0	0	0	0	525
1116	0	0	0	0	520
1117	0	0	0	0	149
1118	0	0	0	0	450
1119	0	0	0	0	450
1120	0	0	0	0	450
1121	0	0	0	0	450
1122	0	0	0	0	450
1123	0	0	0	0	450
1124	0	0	0	0	450
1125	0	0	0	0	450
1126	0	0	0	0	450
1127	0	0	0	0	450
1128	0	0	0	0	450
1129	0	0	0	0	450
1130	0	0	0	0	450
1131	0	0	0	0	450
1132	0	0	0	0	450
1133	0	0	0	0	450
1134	0	0	0	0	450
1135	0	0	0	0	450
1136	0	0	0	0	450
1137	0	0	0	0	450
1138	0	0	0	0	450
1139	0	0	0	0	450
1140	0	0	0	0	450
1141	0	0	0	0	450
1142	0	0	0	0	543
1143	0	0	0	0	127
1144	0	0	0	0	450
1145	0	0	0	0	450
1146	0	0	0	0	450
1147	0	0	0	0	450
1148	0	0	0	0	450
1149	0	0	0	0	450
1150	0	0	0	0	587
1151	0	0	0	0	575
1152	0	0	0	0	570
1153	0	0	0	0	565
1154	0	0	0	0	560
1155	0	0	0	0	555
1156	0	0	0	0	550
1157	0	0	0	0	545
1158	0	0	0	0	540
1159	0	0	0	0	535
1160	0	0	0	0	530
1161	0	0	0	0	525
1162	0	0	0	0	520
1163	0	0	0	0	515
1164	0	0	0	0	510
1165	0	0	0	0	505
1166	0	0	0	0	500
1167	0	0	0	0	495
1168	0	0	0	0	490
1169	0	0	0	0	485
1170	0	0	0	0	480
1171	0	0	0	0	475
1172	0	0	0	0	470
1173	0	0	0	0	465
1174	0	0	0	0	460
1175	0	0	0	0	455
1176	0	0	0	0	450
1177	0	0	0	0	324
1178	0	0	0	0	450
1179	0	0	0	0	450
1180	0	0	0	0	450
1181	0	0	0	0	450
1182	0	0	0	0	450
1183	0	0	0	0	450
1184	0	0	0	0	450
1185	0	0	0	0	450
1186	0	0	0	0	450
1187	0	0	0	0	450
1188	0	0	0	0	450
1189	0	0	0	0	450
1190	0	0	0	0	450
1191	0	0	0	0	450
1192	0	0	0	0	450
1193	0	0	0	0	450
1194	0	0	0	0	450
1195	0	0	0	0	450
1196	0	0	0	0	450
1197	0	0	0	0	450
1198	0	0	0	0	450
1199	0	0	0	0	494
1200	0	0	0	0	489
1201	0	0	0	0	484
1202	0	0	0	0	479
1203	0	0	0	0	474
1204	0	0	0	0	469
1205	0	0	0	0	464
1206	0	0	0	0	459
1207	0	0	0	0	454
1208	0	0	0	0	450
1209	0	0	0	0	450
1210	0	0	0	0	450
1211	0	0	0	0	450
1212	0	0	0	0	450
1213	0	0	0	0	450
1214	0	0	0	0	450
1215	0	0	0	0	450
1216	0	0	0	0	752
1217	0	0	0	0	575
1218	0	0	0	0	570
1219	0	0	0	0	565
1220	0	0	0	0	560
1221	0	0	0	0	555
1222	0	0	0	0	550
1223	0	0	0	0	545
1224	0	0	0	0	540
1225	0	0	0	0	535
1226	0	0	0	0	530
1227	0	0	0	0	525
1228	0	0	0	0	520
1229	0	0	0	0	515
1230	0	0	0	0	510
1231	0	0	0	0	505
1232	0	0	0	0	500
1233	0	0	0	0	495
1234	0	0	0	0	490
1235	0	0	0	0	485
1236	0	0	0	0	480
1237	0	0	0	0	475
1238	0	0	0	0	470
1239	0	0	0	0	465
1240	0	0	0	0	460
1241	0	0	0	0	455
1242	0	0	0	0	450
1243	0	0	0	0	450
1244	0	0	0	0	450
1245	0	0	0	0	450
1246	0	0	0	0	450
1247	0	0	0	0	620
1248	0	0	0	0	575
1249	0	0	0	0	570
1250	0	0	0	0	565
1251	0	0	0	0	560
1252	0	0	0	0	555
1253	0	0	0	0	550
1254	0	0	0	0	307
1255	0	0	0	0	450
1256	0	0	0	0	450
1257	0	0	0	0	450
1258	0	0	0	0	450
1259	0	0	0	0	450
1260	0	0	0	0	450
1261	0	0	0	0	450
1262	0	0	0	0	450
1263	0	0	0	0	450
1264	0	0	0	0	450
1265	0	0	0	0	450
1266	0	0	0	0	450
1267	0	0	0	0	450
1268	0	0	0	0	450
1269	0	0	0	0	450
1270	0	0	0	0	360
1271	0	0	0	0	450
1272	0	0	0	0	450
1273	0	0	0	0	450
1274	0	0	0	0	450
1275	0	0	0	0	450
1276	0	0	0	0	450
1277	0	0	0	0	450
1278	0	0	0	0	450
1279	0	0	0	0	450
1280	0	0	0	0	450
1281	0	0	0	0	450
1282	0	0	0	0	450
1283	0	0	0	0	450
1284	0	0	0	0	450
1285	0	0	0	0	450
1286	0	0	0	0	450
1287	0	0	0	0	180
1288	0	0	0	0	450
1289	0	0	0	0	450
1290	0	0	0	0	450
1291	0	0	0	0	450
1292	0	0	0	0	450
1293	0	0	0	0	450
1294	0	0	0	0	450
1295	0	0	0	0	450
1296	0	0	0	0	450
1297	0	0	0	0	450
1298	0	0	0	0	450
1299	0	0	0	0	313
1300	0	0	0	0	450
1301	0	0	0	0	450
1302	0	0	0	0	450
1303	0	0	0	0	450
1304	0	0	0	0	450
1305	0	0	0	0	450
1306	0	0	0	0	450
1307	0	0	0	0	450
1308	0	0	0	0	450
1309	0	0	0	0	450
1310	0	0	0	0	450
1311	0	0	0	0	450
1312	0	0	0	0	450
1313	0	0	0	0	450
1314	0	0	0	0	450
1315	0	0	0	0	450
1316	0	0	0	0	450
1317	0	0	0	0	450
1318	0	0	0	0	450
1319	0	0	0	0	450
1320	0	0	0	0	450
1321	0	0	0	0	450
1322	0	0	0	0	450
1323	0	0	0	0	450
1324	0	0	0	0	450
1325	0	0	0	0	450
1326	0	0	0	0	450
1327	0	0	0	0	450
1328	0	0	0	0	450
1329	0	0	0	0	450
1330	0	0	0	0	450
1331	0	0	0	0	450
1332	0	0	0	0	450
1333	0	0	0	0	450
1334	0	0	0	0	450
1335	0	0	0	0	306
1336	0	0	0	0	450
1337	0	0	0	0	450
1338	0	0	0	0	450
1339	0	0	0	0	450
1340	0	0	0	0	450
1341	0	0	0	0	450
1342	0	0	0	0	450
1343	0	0	0	0	450
1344	0	0	0	0	450
1345	0	0	0	0	450
1346	0	0	0	0	450
1347	0	0	0	0	450
1348	0	0	0	0	450
1349	0	0	0	0	450
1350	0	0	0	0	429
1351	0	0	0	0	450
1352	0	0	0	0	450
1353	0	0	0	0	450
1354	0	0	0	0	450
1355	0	0	0	0	450
1356	0	0	0	0	450
1357	0	0	0	0	450
1358	0	0	0	0	450
1359	0	0	0	0	450
1360	0	0	0	0	450
1361	0	0	0	0	450
1362	0	0	0	0	450
1363	0	0	0	0	450
1364	0	0	0	0	450
1365	0	0	0	0	450
1366	0	0	0	0	450
1367	0	0	0	0	450
1368	0	0	0	0	450
1369	0	0	0	0	450
1370	0	0	0	0	450
1371	0	0	0	0	417
1372	0	0	0	0	450
1373	0	0	0	0	450
1374	0	0	0	0	450
1375	0	0	0	0	450
1376	0	0	0	0	450
1377	0	0	0	0	450
1378	0	0	0	0	450
1379	0	0	0	0	450
1380	0	0	0	0	450
1381	0	0	0	0	450
1382	0	0	0	0	450
1383	0	0	0	0	450
1384	0	0	0	0	450
1385	0	0	0	0	450
1386	0	0	0	0	450
1387	0	0	0	0	450
1388	0	0	0	0	344
1389	0	0	0	0	450
1390	0	0	0	0	450
1391	0	0	0	0	651
1392	0	0	0	0	575
1393	0	0	0	0	570
1394	0	0	0	0	565
1395	0	0	0	0	560
1396	0	0	0	0	555
1397	0	0	0	0	550
1398	0	0	0	0	545
1399	0	0	0	0	540
1400	0	0	0	0	545
1401	0	0	0	0	550
1402	0	0	0	0	555
1403	0	0	0	0	560
1404	0	0	0	0	565
1405	0	0	0	0	570
1406	0	0	0	0	575
1407	0	0	0	0	575
1408	0	0	0	0	575
1409	0	0	0	0	575
1410	0	0	0	0	575
1411	0	0	0	0	575
1412	0	0	0	0	575
1413	0	0	0	0	575
1414	0	0	0	0	575
1415	0	0	0	0	575
1416	0	0	0	0	575
1417	0	0	0	0	267
1418	0	0	0	0	450
1419	0	0	0	0	455
1420	0	0	0	0	460
1421	0	0	0	0	465
1422	0	0	0	0	470
1423	0	0	0	0	475
1424	0	0	0	0	480
1425	0	0	0	0	485
1426	0	0	0	0	490
1427	0	0	0	0	495
1428	0	0	0	0	500
1429	0	0	0	0	505
1430	0	0	0	0	510
1431	0	0	0	0	515
1432	0	0	0	0	681
1433	0	0	0	0	575
1434	0	0	0	0	575
1435	0	0	0	0	575
1436	0	0	0	0	575
1437	0	0	0	0	575
1438	0	0	0	0	575
1439	0	0	0	0	575
1440	0	0	0	0	575
1441	0	0	0	0	575
1442	0	0	0	0	575
1443	0	0	0	0	575
1444	0	0	0	0	575
1445	0	0	0	0	575
1446	0	0	0	0	553
1447	0	0	0	0	558
1448	0	0	0	0	563
1449	0	0	0	0	568
1450	0	0	0	0	573
1451	0	0	0	0	575
1452	0	0	0	0	575
1453	0	0	0	0	575
1454	0	0	0	0	575
1455	0	0	0	0	575
1456	0	0	0	0	575
1457	0	0	0	0	575
1458	0	0	0	0	575
1459	0	0	0	0	575
1460	0	0	0	0	575
1461	0	0	0	0	575
1462	0	0	0	0	481
1463	0	0	0	0	486
1464	0	0	0	0	491
1465	0	0	0	0	496
1466	0	0	0	0	501
1467	0	0	0	0	506
1468	0	0	0	0	511
1469	0	0	0	0	516
1470	0	0	0	0	521
1471	0	0	0	0	526
1472	0	0	0	0	531
1473	0	0	0	0	536
1474	0	0	0	0	541
1475	0	0	0	0	546
1476	0	0	0	0	551
1477	0	0	0	0	556
1478	0	0	0	0	561
1479	0	0	0	0	566
1480	0	0	0	0	571
1481	0	0	0	0	575
1482	0	0	0	0	575
1483	0	0	0	0	575
1484	0	0	0	0	575
1485	0	0	0	0	575
1486	0	0	0	0	575
1487	0	0	0	0	575
1488	0	0	0	0	575
1489	0	0	0	0	575
1490	0	0	0	0	575
1491	0	0	0	0	575
1492	0	0	0	0	796
1493	0	0	0	0	575
1494	0	0	0	0	575
1495	0	0	0	0	575
1496	0	0	0	0	575
1497	0	0	0	0	575
1498	0	0	0	0	575
1499	0	0	0	0	575
1500	0	0	0	0	575
1501	0	0	0	0	575
1502	0	0	0	0	575
1503	0	0	0	0	575
1504	0	0	0	0	575
1505	0	0	0	0	575
1506	0	0	0	0	575
1507	0	0	0	0	575
1508	0	0	0	0	575
1509	0	0	0	0	575
1510	0	0	0	0	575
1511	0	0	0	0	575
1512	0	0	0	0	575
1513	0	0	0	0	575
1514	0	0	0	0	575
1515	0	0	0	0	575
1516	0	0	0	0	575
1517	0	0	0	0	575
1518	0	0	0	0	575
1519	0	0	0	0	575
1520	0	0	0	0	575
1521	0	0	0	0	575
1522	0	0	0	0	575
1523	0	0	0	0	575
1524	0	0	0	0	575
1525	0	0	0	0	575
1526	0	0	0	0	575
1527	0	0	0	0	575
1528	0	0	0	0	575
1529	0	0	0	0	250
1530	0	0	0	0	450
1531	0	0	0	0	455
1532	0	0	0	0	460
1533	0	0	0	0	543
1534	0	0	0	0	153
1535	0	0	0	0	450
1536	0	0	0	0	455
1537	0	0	0	0	460
1538	0	0	0	0	465
1539	0	0	0	0	470
1540	0	0	0	0	475
1541	0	0	0	0	480
1542	0	0	0	0	485
1543	0	0	0	0	490
1544	0	0	0	0	495
1545	0	0	0	0	500
1546	0	0	0	0	505
1547	0	0	0	0	244
1548	0	0	0	0	450
1549	0	0	0	0	455
1550	0	0	0	0	460
1551	0	0	0	0	465
1552	0	0	0	0	470
1553	0	0	0	0	475
1554	0	0	0	0	480
1555	0	0	0	0	485
1556	0	0	0	0	490
1557	0	0	0	0	495
1558	0	0	0	0	500
1559	0	0	0	0	505
1560	0	0	0	0	451
1561	0	0	0	0	588
1562	0	0	0	0	575
1563	0	0	0	0	575
1564	0	0	0	0	575
1565	0	0	0	0	575
1566	0	0	0	0	575
1567	0	0	0	0	575
1568	0	0	0	0	575
1569	0	0	0	0	575
1570	0	0	0	0	575
1571	0	0	0	0	575
1572	0	0	0	0	575
1573	0	0	0	0	575
1574	0	0	0	0	575
1575	0	0	0	0	575
1576	0	0	0	0	575
1577	0	0	0	0	575
1578	0	0	0	0	575
1579	0	0	0	0	575
1580	0	0	0	0	575
1581	0	0	0	0	575
1582	0	0	0	0	575
1583	0	0	0	0	575
1584	0	0	0	0	575
1585	0	0	0	0	575
1586	0	0	0	0	575
1587	0	0	0	0	575
1588	0	0	0	0	575
1589	0	0	0	0	575
1590	0	0	0	0	575
1591	0	0	0	0	575
1592	0	0	0	0	575
1593	0	0	0	0	575
1594	0	0	0	0	575
1595	0	0	0	0	575
1596	0	0	0	0	575
1597	0	0	0	0	575
1598	0	0	0	0	575
1599	0	0	0	0	575
1600	0	0	0	0	570
1601	0	0	0	0	565
1602	0	0	0	0	560
1603	0	0	0	0	555
1604	0	0	0	0	550
1605	0	0	0	0	545
1606	0	0	0	0	540
1607	0	0	0	0	535
1608	0	0	0	0	530
1609	0	0	0	0	525
1610	0	0	0	0	520
1611	0	0	0	0	515
1612	0	0	0	0	510
1613	0	0	0	0	505
1614	0	0	0	0	500
1615	0	0	0	0	495
1616	0	0	0	0	490
1617	0	0	0	0	679
1618	0	0	0	0	575
1619	0	0	0	0	570
1620	0	0	0	0	565
1621	0	0	0	0	560
1622	0	0	0	0	555
1623	0	0	0	0	550
1624	0	0	0	0	545
1625	0	0	0	0	540
1626	0	0	0	0	535
1627	0	0	0	0	530
1628	0	0	0	0	525
1629	0	0	0	0	520
1630	0	0	0	0	515
1631	0	0	0	0	510
1632	0	0	0	0	505
1633	0	0	0	0	500
1634	0	0	0	0	495
1635	0	0	0	0	686
1636	0	0	0	0	575
1637	0	0	0	0	570
1638	0	0	0	0	565
1639	0	0	0	0	560
1640	0	0	0	0	555
1641	0	0	0	0	550
1642	0	0	0	0	545
1643	0	0	0	0	540
1644	0	0	0	0	535
1645	0	0	0	0	530
1646	0	0	0	0	525
1647	0	0	0	0	520
1648	0	0	0	0	515
1649	0	0	0	0	510
1650	0	0	0	0	505
1651	0	0	0	0	500
1652	0	0	0	0	495
1653	0	0	0	0	490
1654	0	0	0	0	485
1655	0	0	0	0	480
1656	0	0	0	0	475
1657	0	0	0	0	470
1658	0	0	0	0	465
1659	0	0	0	0	460
1660	0	0	0	0	455
1661	0	0	0	0	450
1662	0	0	0	0	450
1663	0	0	0	0	450
1664	0	0	0	0	450
1665	0	0	0	0	450
1666	0	0	0	0	450
1667	0	0	0	0	450
1668	0	0	0	0	450
1669	0	0	0	0	450
1670	0	0	0	0	450
1671	0	0	0	0	450
1672	0	0	0	0	450
1673	0	0	0	0	450
1674	0	0	0	0	450
1675	0	0	0	0	450
1676	0	0	0	0	450
1677	0	0	0	0	450
1678	0	0	0	0	450
1679	0	0	0	0	450
1680	0	0	0	0	450
1681	0	0	0	0	450
1682	0	0	0	0	450
1683	0	0	0	0	450
1684	0	0	0	0	450
1685	0	0	0	0	450
1686	0	0	0	0	450
1687	0	0	0	0	450
1688	0	0	0	0	450
1689	0	0	0	0	450
1690	0	0	0	0	450
1691	0	0	0	0	450
1692	0	0	0	0	450
1693	0	0	0	0	450
1694	0	0	0	0	450
1695	0	0	0	0	450
1696	0	0	0	0	450
1697	0	0	0	0	450
1698	0	0	0	0	450
1699	0	0	0	0	450
1700	0	0	0	0	455
1701	0	0	0	0	460
1702	0	0	0	0	465
1703	0	0	0	0	470
1704	0	0	0	0	475
1705	0	0	0	0	480
1706	0	0	0	0	485
1707	0	0	0	0	490
1708	0	0	0	0	582
1709	0	0	0	0	575
1710	0	0	0	0	575
1711	0	0	0	0	575
1712	0	0	0	0	575
1713	0	0	0	0	575
1714	0	0	0	0	575
1715	0	0	0	0	575
1716	0	0	0	0	575
1717	0	0	0	0	575
1718	0	0	0	0	575
1719	0	0	0	0	575
1720	0	0	0	0	575
1721	0	0	0	0	575
1722	0	0	0	0	575
1723	0	0	0	0	575
1724	0	0	0	0	575
1725	0	0	0	0	575
1726	0	0	0	0	575
1727	0	0	0	0	575
1728	0	0	0	0	575
1729	0	0	0	0	575
1730	0	0	0	0	194
1731	0	0	0	0	450
1732	0	0	0	0	455
1733	0	0	0	0	460
1734	0	0	0	0	465
1735	0	0	0	0	470
1736	0	0	0	0	475
1737	0	0	0	0	480
1738	0	0	0	0	485
1739	0	0	0	0	490
1740	0	0	0	0	495
1741	0	0	0	0	500
1742	0	0	0	0	505
1743	0	0	0	0	510
1744	0	0	0	0	515
1745	0	0	0	0	520
1746	0	0	0	0	525
1747	0	0	0	0	530
1748	0	0	0	0	535
1749	0	0	0	0	540
1750	0	0	0	0	545
1751	0	0	0	0	550
1752	0	0	0	0	555
1753	0	0	0	0	560
1754	0	0	0	0	565
1755	0	0	0	0	570
1756	0	0	0	0	575
1757	0	0	0	0	575
1758	0	0	0	0	575
1759	0	0	0	0	575
1760	0	0	0	0	575
1761	0	0	0	0	575
1762	0	0	0	0	575
1763	0	0	0	0	575
1764	0	0	0	0	575
1765	0	0	0	0	575
1766	0	0	0	0	575
1767	0	0	0	0	575
1768	0	0	0	0	575
1769	0	0	0	0	575
1770	0	0	0	0	754
1771	0	0	0	0	575
1772	0	0	0	0	575
1773	0	0	0	0	575
1774	0	0	0	0	575
1775	0	0	0	0	575
1776	0	0	0	0	575
1777	0	0	0	0	575
1778	0	0	0	0	575
1779	0	0	0	0	575
1780	0	0	0	0	575
1781	0	0	0	0	575
1782	0	0	0	0	575
1783	0	0	0	0	575
1784	0	0	0	0	575
1785	0	0	0	0	575
1786	0	0	0	0	575
1787	0	0	0	0	575
1788	0	0	0	0	575
1789	0	0	0	0	575
1790	0	0	0	0	575
1791	0	0	0	0	575
1792	0	0	0	0	575
1793	0	0	0	0	575
1794	0	0	0	0	575
1795	0	0	0	0	575
1796	0	0	0	0	575
1797	0	0	0	0	575
1798	0	0	0	0	575
1799	0	0	0	0	575
1800	0	0	0	0	570
1801	0	0	0	0	565
1802	0	0	0	0	560
1803	0	0	0	0	555
1804	0	0	0	0	550
1805	0	0	0	0	545
1806	0	0	0	0	121
1807	0	0	0	0	450
1808	0	0	0	0	450
1809	0	0	0	0	450
1810	0	0	0	0	450
1811	0	0	0	0	450
1812	0	0	0	0	450
1813	0	0	0	0	450
1814	0	0	0	0	450
1815	0	0	0	0	450
1816	0	0	0	0	450
1817	0	0	0	0	490
1818	0	0	0	0	485
1819	0	0	0	0	480
1820	0	0	0	0	475
1821	0	0	0	0	470
1822	0	0	0	0	465
1823	0	0	0	0	460
1824	0	0	0	0	455
1825	0	0	0	0	450
1826	0	0	0	0	450
1827	0	0	0	0	450
1828	0	0	0	0	450
1829	0	0	0	0	450
1830	0	0	0	0	450
1831	0	0	0	0	532
1832	0	0	0	0	527
1833	0	0	0	0	522
1834	0	0	0	0	698
1835	0	0	0	0	575
1836	0	0	0	0	570
1837	0	0	0	0	565
1838	0	0	0	0	560
1839	0	0	0	0	555
1840	0	0	0	0	550
1841	0	0	0	0	545
1842	0	0	0	0	540
1843	0	0	0	0	535
1844	0	0	0	0	530
1845	0	0	0	0	720
1846	0	0	0	0	575
1847	0	0	0	0	570
1848	0	0	0	0	565
1849	0	0	0	0	560
1850	0	0	0	0	555
1851	0	0	0	0	550
1852	0	0	0	0	545
1853	0	0	0	0	540
1854	0	0	0	0	535
1855	0	0	0	0	530
1856	0	0	0	0	525
1857	0	0	0	0	520
1858	0	0	0	0	515
1859	0	0	0	0	510
1860	0	0	0	0	505
1861	0	0	0	0	500
1862	0	0	0	0	495
1863	0	0	0	0	490
1864	0	0	0	0	485
1865	0	0	0	0	428
1866	0	0	0	0	450
1867	0	0	0	0	450
1868	0	0	0	0	450
1869	0	0	0	0	450
1870	0	0	0	0	450
1871	0	0	0	0	450
1872	0	0	0	0	450
1873	0	0	0	0	450
1874	0	0	0	0	450
1875	0	0	0	0	450
1876	0	0	0	0	450
1877	0	0	0	0	450
1878	0	0	0	0	450
1879	0	0	0	0	450
1880	0	0	0	0	450
1881	0	0	0	0	450
1882	0	0	0	0	450
1883	0	0	0	0	450
1884	0	0	0	0	450
1885	0	0	0	0	450
1886	0	0	0	0	450
1887	0	0	0	0	450
1888	0	0	0	0	450
1889	0	0	0	0	450
1890	0	0	0	0	450
1891	0	0	0	0	450
1892	0	0	0	0	450
1893	0	0	0	0	450
1894	0	0	0	0	567
1895	0	0	0	0	562
1896	0	0	0	0	557
1897	0	0	0	0	552
1898	0	0	0	0	547
1899	0	0	0	0	542
1900	0	0	0	0	547
1901	0	0	0	0	552
1902	0	0	0	0	557
1903	0	0	0	0	562
1904	0	0	0	0	567
1905	0	0	0	0	572
1906	0	0	0	0	575
1907	0	0	0	0	575
1908	0	0	0	0	575
1909	0	0	0	0	575
1910	0	0	0	0	575
1911	0	0	0	0	575
1912	0	0	0	0	575
1913	0	0	0	0	575
1914	0	0	0	0	575
1915	0	0	0	0	575
1916	0	0	0	0	575
1917	0	0	0	0	575
1918	0	0	0	0	575
1919	0	0	0	0	575
1920	0	0	0	0	575
1921	0	0	0	0	575
1922	0	0	0	0	575
1923	0	0	0	0	575
1924	0	0	0	0	575
1925	0	0	0	0	575
1926	0	0	0	0	575
1927	0	0	0	0	575
1928	0	0	0	0	575
1929	0	0	0	0	575
1930	0	0	0	0	575
1931	0	0	0	0	575
1932	0	0	0	0	575
1933	0	0	0	0	575
1934	0	0	0	0	575
1935	0	0	0	0	575
1936	0	0	0	0	575
1937	0	0	0	0	575
1938	0	0	0	0	575
1939	0	0	0	0	575
1940	0	0	0	0	575
1941	0	0	0	0	575
1942	0	0	0	0	575
1943	0	0	0	0	575
1944	0	0	0	0	575
1945	0	0	0	0	575
1946	0	0	0	0	575
1947	0	0	0	0	575
1948	0	0	0	0	345
1949	0	0	0	0	450
1950	0	0	0	0	455
1951	0	0	0	0	460
1952	0	0	0	0	465
1953	0	0	0	0	470
1954	0	0	0	0	475
1955	0	0	0	0	480
1956	0	0	0	0	485
1957	0	0	0	0	490
1958	0	0	0	0	478
1959	0	0	0	0	483
1960	0	0	0	0	488
1961	0	0	0	0	493
1962	0	0	0	0	365
1963	0	0	0	0	450
1964	0	0	0	0	455
1965	0	0	0	0	460
1966	0	0	0	0	465
1967	0	0	0	0	470
1968	0	0	0	0	475
1969	0	0	0	0	480
1970	0	0	0	0	485
1971	0	0	0	0	490
1972	0	0	0	0	495
1973	0	0	0	0	500
1974	0	0	0	0	505
1975	0	0	0	0	510
1976	0	0	0	0	515
1977	0	0	0	0	520
1978	0	0	0	0	525
1979	0	0	0	0	530
1980	0	0	0	0	535
1981	0	0	0	0	540
1982	0	0	0	0	545
1983	0	0	0	0	550
1984	0	0	0	0	555
1985	0	0	0	0	560
1986	0	0	0	0	520
1987	0	0	0	0	178
1988	0	0	0	0	450
1989	0	0	0	0	455
1990	0	0	0	0	460
1991	0	0	0	0	465
1992	0	0	0	0	470
1993	0	0	0	0	475
1994	0	0	0	0	480
1995	0	0	0	0	485
1996	0	0	0	0	490
1997	0	0	0	0	495
1998	0	0	0	0	500
1999	0	0	0	0	505
2000	0	0	0	0	500
2001	0	0	0	0	495
2002	0	0	0	0	490
2003	0	0	0	0	485
2004	0	0	0	0	480
2005	0	0	0	0	475
2006	0	0	0	0	470
2007	0	0	0	0	465
2008	0	0	0	0	460
2009	0	0	0	0	455
2010	0	0	0	0	450
2011	0	0	0	0	450
2012	0	0	0	0	183
2013	0	0	0	0	450
2014	0	0	0	0	450
2015	0	0	0	0	450
2016	0	0	0	0	450
2017	0	0	0	0	450
2018	0	0	0	0	450
2019	0	0	0	0	450
2020	0	0	0	0	450
2021	0	0	0	0	450
2022	0	0	0	0	450
2023	0	0	0	0	450
2024	0	0	0	0	450
2025	0	0	0	0	450
2026	0	0	0	0	450
2027	0	0	0	0	450
2028	0	0	0	0	450
2029	0	0	0	0	450
2030	0	0	0	0	450
2031	0	0	0	0	337
2032	0	0	0	0	450
2033	0	0	0	0	450
2034	0	0	0	0	450
2035	0	0	0	0	450
2036	0	0	0	0	450
2037	0	0	0	0	450
2038	0	0	0	0	450
2039	0	0	0	0	450
2040	0	0	0	0	450
2041	0	0	0	0	220
2042	0	0	0	0	450
2043	0	0	0	0	450
2044	0	0	0	0	450
2045	0	0	0	0	450
2046	0	0	0	0	450
2047	0	0	0	0	298
2048	0	0	0	0	450
2049	0	0	0	0	450
2050	0	0	0	0	450
2051	0	0	0	0	450
2052	0	0	0	0	450
2053	0	0	0	0	450
2054	0	0	0	0	450
2055	0	0	0	0	450
2056	0	0	0	0	450
2057	0	0	0	0	450
2058	0	0	0	0	450
2059	0	0	0	0	450
2060	0	0	0	0	450
2061	0	0	0	0	450
2062	0	0	0	0	180
2063	0	0	0	0	450
2064	0	0	0	0	450
2065	0	0	0	0	450
2066	0	0	0	0	450
2067	0	0	0	0	450
2068	0	0	0	0	450
2069	0	0	0	0	450
2070	0	0	0	0	512
2071	0	0	0	0	507
2072	0	0	0	0	502
2073	0	0	0	0	497
2074	0	0	0	0	492
2075	0	0	0	0	487
2076	0	0	0	0	482
2077	0	0	0	0	477
2078	0	0	0	0	472
2079	0	0	0	0	467
2080	0	0	0	0	462
2081	0	0	0	0	457
2082	0	0	0	0	452
2083	0	0	0	0	450
2084	0	0	0	0	450
2085	0	0	0	0	450
2086	0	0	0	0	450
2087	0	0	0	0	450
2088	0	0	0	0	450
2089	0	0	0	0	450
2090	0	0	0	0	450
2091	0	0	0	0	450
2092	0	0	0	0	450
2093	0	0	0	0	450
2094	0	0	0	0	450
2095	0	0	0	0	450
2096	0	0	0	0	450
2097	0	0	0	0	450
2098	0	0	0	0	450
2099	0	0	0	0	450
2100	0	0	0	0	450
2101	0	0	0	0	450
2102	0	0	0	0	450
2103	0	0	0	0	450
2104	0	0	0	0	450
2105	0	0	0	0	450
2106	0	0	0	0	216
2107	0	0	0	0	754
2108	0	0	0	0	575
2109	0	0	0	0	570
2110	0	0	0	0	565
2111	0	0	0	0	560
2112	0	0	0	0	555
2113	0	0	0	0	550
2114	0	0	0	0	712
2115	0	0	0	0	575
2116	0	0	0	0	570
2117	0	0	0	0	565
2118	0	0	0	0	560
2119	0	0	0	0	555
2120	0	0	0	0	550
2121	0	0	0	0	545
2122	0	0	0	0	540
2123	0	0	0	0	535
2124	0	0	0	0	530
2125	0	0	0	0	525
2126	0	0	0	0	520
2127	0	0	0	0	515
2128	0	0	0	0	510
2129	0	0	0	0	505
2130	0	0	0	0	500
2131	0	0	0	0	495
2132	0	0	0	0	490
2133	0	0	0	0	485
2134	0	0	0	0	480
2135	0	0	0	0	475
2136	0	0	0	0	470
2137	0	0	0	0	465
2138	0	0	0	0	460
2139	0	0	0	0	455
2140	0	0	0	0	450
2141	0	0	0	0	450
2142	0	0	0	0	450
2143	0	0	0	0	450
2144	0	0	0	0	450
2145	0	0	0	0	450
2146	0	0	0	0	450
2147	0	0	0	0	450
2148	0	0	0	0	450
2149	0	0	0	0	123
2150	0	0	0	0	450
2151	0	0	0	0	450
2152	0	0	0	0	396
2153	0	0	0	0	450
2154	0	0	0	0	450
2155	0	0	0	0	450
2156	0	0	0	0	450
2157	0	0	0	0	450
2158	0	0	0	0	450
2159	0	0	0	0	450
2160	0	0	0	0	450
2161	0	0	0	0	450
2162	0	0	0	0	450
2163	0	0	0	0	450
2164	0	0	0	0	450
2165	0	0	0	0	450
2166	0	0	0	0	450
2167	0	0	0	0	450
2168	0	0	0	0	450
2169	0	0	0	0	450
2170	0	0	0	0	450
2171	0	0	0	0	450
2172	0	0	0	0	450
2173	0	0	0	0	450
2174	0	0	0	0	450
2175	0	0	0	0	450
2176	0	0	0	0	450
2177	0	0	0	0	450
2178	0	0	0	0	450
2179	0	0	0	0	450
2180	0	0	0	0	450
2181	0	0	0	0	450
2182	0	0	0	0	450
2183	0	0	0	0	450
2184	0	0	0	0	450
2185	0	0	0	0	450
2186	0	0	0	0	450
2187	0	0	0	0	450
2188	0	0	0	0	450
2189	0	0	0	0	450
2190	0	0	0	0	450
2191	0	0	0	0	450
2192	0	0	0	0	450
2193	0	0	0	0	450
2194	0	0	0	0	450
2195	0	0	0	0	450
2196	0	0	0	0	450
2197	0	0	0	0	450
2198	0	0	0	0	450
2199	0	0	0	0	450
2200	0	0	0	0	450
2201	0	0	0	0	450
2202	0	0	0	0	450
2203	0	0	0	0	450
2204	0	0	0	0	450
2205	0	0	0	0	450
2206	0	0	0	0	450
2207	0	0	0	0	450
2208	0	0	0	0	450
2209	0	0	0	0	450
2210	0	0	0	0	450
2211	0	0	0	0	450
2212	0	0	0	0	720
2213	0	0	0	0	575
2214	0	0	0	0	570
2215	0	0	0	0	565
2216	0	0	0	0	560
2217	0	0	0	0	555
2218	0	0	0	0	713
2219	0	0	0	0	575
2220	0	0	0	0	570
2221	0	0	0	0	565
2222	0	0	0	0	560
2223	0	0	0	0	555
2224	0	0	0	0	550
2225	0	0	0	0	545
2226	0	0	0	0	540
2227	0	0	0	0	535
2228	0	0	0	0	530
2229	0	0	0	0	525
2230	0	0	0	0	520
2231	0	0	0	0	515
2232	0	0	0	0	510
2233	0	0	0	0	505
2234	0	0	0	0	500
2235	0	0	0	0	495
2236	0	0	0	0	490
2237	0	0	0	0	552
2238	0	0	0	0	547
2239	0	0	0	0	542
2240	0	0	0	0	537
2241	0	0	0	0	532
2242	0	0	0	0	527
2243	0	0	0	0	522
2244	0	0	0	0	517
2245	0	0	0	0	512
2246	0	0	0	0	507
2247	0	0	0	0	502
2248	0	0	0	0	497
2249	0	0	0	0	492
2250	0	0	0	0	487
2251	0	0	0	0	795
2252	0	0	0	0	575
2253	0	0	0	0	570
2254	0	0	0	0	565
2255	0	0	0	0	560
2256	0	0	0	0	555
2257	0	0	0	0	550
2258	0	0	0	0	545
2259	0	0	0	0	540
2260	0	0	0	0	535
2261	0	0	0	0	445
2262	0	0	0	0	450
2263	0	0	0	0	450
2264	0	0	0	0	450
2265	0	0	0	0	450
2266	0	0	0	0	450
2267	0	0	0	0	450
2268	0	0	0	0	450
2269	0	0	0	0	450
2270	0	0	0	0	450
2271	0	0	0	0	450
2272	0	0	0	0	450
2273	0	0	0	0	450
2274	0	0	0	0	450
2275	0	0	0	0	450
2276	0	0	0	0	450
2277	0	0	0	0	450
2278	0	0	0	0	450
2279	0	0	0	0	450
2280	0	0	0	0	450
2281	0	0	0	0	450
2282	0	0	0	0	450
2283	0	0	0	0	450
2284	0	0	0	0	450
2285	0	0	0	0	450
2286	0	0	0	0	450
2287	0	0	0	0	450
2288	0	0	0	0	450
2289	0	0	0	0	450
2290	0	0	0	0	450
2291	0	0	0	0	396
2292	0	0	0	0	450
2293	0	0	0	0	450
2294	0	0	0	0	178
2295	0	0	0	0	450
2296	0	0	0	0	450
2297	0	0	0	0	450
2298	0	0	0	0	450
2299	0	0	0	0	450
2300	0	0	0	0	450
2301	0	0	0	0	122
2302	0	0	0	0	450
2303	0	0	0	0	450
2304	0	0	0	0	450
2305	0	0	0	0	450
2306	0	0	0	0	450
2307	0	0	0	0	450
2308	0	0	0	0	450
2309	0	0	0	0	450
2310	0	0	0	0	450
2311	0	0	0	0	450
2312	0	0	0	0	450
2313	0	0	0	0	450
2314	0	0	0	0	450
2315	0	0	0	0	450
2316	0	0	0	0	450
2317	0	0	0	0	450
2318	0	0	0	0	450
2319	0	0	0	0	450
2320	0	0	0	0	450
2321	0	0	0	0	450
2322	0	0	0	0	450
2323	0	0	0	0	450
2324	0	0	0	0	450
2325	0	0	0	0	450
2326	0	0	0	0	450
2327	0	0	0	0	450
2328	0	0	0	0	450
2329	0	0	0	0	450
2330	0	0	0	0	357
2331	0	0	0	0	450
2332	0	0	0	0	450
2333	0	0	0	0	450
2334	0	0	0	0	450
2335	0	0	0	0	450
2336	0	0	0	0	450
2337	0	0	0	0	589
2338	0	0	0	0	575
2339	0	0	0	0	570
2340	0	0	0	0	565
2341	0	0	0	0	560
2342	0	0	0	0	555
2343	0	0	0	0	550
2344	0	0	0	0	545
2345	0	0	0	0	540
2346	0	0	0	0	535
2347	0	0	0	0	530
2348	0	0	0	0	525
2349	0	0	0	0	520
2350	0	0	0	0	515
2351	0	0	0	0	648
2352	0	0	0	0	575
2353	0	0	0	0	570
2354	0	0	0	0	565
2355	0	0	0	0	560
2356	0	0	0	0	555
2357	0	0	0	0	550
2358	0	0	0	0	545
2359	0	0	0	0	540
2360	0	0	0	0	535
2361	0	0	0	0	530
2362	0	0	0	0	525
2363	0	0	0	0	520
2364	0	0	0	0	515
2365	0	0	0	0	510
2366	0	0	0	0	505
2367	0	0	0	0	500
2368	0	0	0	0	495
2369	0	0	0	0	490
2370	0	0	0	0	485
2371	0	0	0	0	480
2372	0	0	0	0	475
2373	0	0	0	0	470
2374	0	0	0	0	465
2375	0	0	0	0	460
2376	0	0	0	0	455
2377	0	0	0	0	450
2378	0	0	0	0	450
2379	0	0	0	0	450
2380	0	0	0	0	450
2381	0	0	0	0	450
2382	0	0	0	0	450
2383	0	0	0	0	450
2384	0	0	0	0	450
2385	0	0	0	0	450
2386	0	0	0	0	450
2387	0	0	0	0	450
2388	0	0	0	0	450
2389	0	0	0	0	450
2390	0	0	0	0	450
2391	0	0	0	0	450
2392	0	0	0	0	450
2393	0	0	0	0	450
2394	0	0	0	0	450
2395	0	0	0	0	450
2396	0	0	0	0	450
2397	0	0	0	0	450
2398	0	0	0	0	450
2399	0	0	0	0	450
2400	0	0	0	0	455
2401	0	0	0	0	460
2402	0	0	0	0	465
2403	0	0	0	0	470
2404	0	0	0	0	475
2405	0	0	0	0	480
2406	0	0	0	0	485
2407	0	0	0	0	490
2408	0	0	0	0	495
2409	0	0	0	0	500
2410	0	0	0	0	505
2411	0	0	0	0	510
2412	0	0	0	0	150
2413	0	0	0	0	450
2414	0	0	0	0	455
2415	0	0	0	0	460
2416	0	0	0	0	539
2417	0	0	0	0	544
2418	0	0	0	0	549
2419	0	0	0	0	554
2420	0	0	0	0	559
2421	0	0	0	0	564
2422	0	0	0	0	277
2423	0	0	0	0	450
2424	0	0	0	0	455
2425	0	0	0	0	460
2426	0	0	0	0	465
2427	0	0	0	0	470
2428	0	0	0	0	475
2429	0	0	0	0	480
2430	0	0	0	0	485
2431	0	0	0	0	490
2432	0	0	0	0	495
2433	0	0	0	0	500
2434	0	0	0	0	505
2435	0	0	0	0	510
2436	0	0	0	0	515
2437	0	0	0	0	520
2438	0	0	0	0	525
2439	0	0	0	0	530
2440	0	0	0	0	535
2441	0	0	0	0	540
2442	0	0	0	0	545
2443	0	0	0	0	550
2444	0	0	0	0	555
2445	0	0	0	0	560
2446	0	0	0	0	565
2447	0	0	0	0	707
2448	0	0	0	0	575
2449	0	0	0	0	575
2450	0	0	0	0	575
2451	0	0	0	0	575
2452	0	0	0	0	575
2453	0	0	0	0	575
2454	0	0	0	0	575
2455	0	0	0	0	575
2456	0	0	0	0	575
2457	0	0	0	0	575
2458	0	0	0	0	575
2459	0	0	0	0	575
2460	0	0	0	0	575
2461	0	0	0	0	575
2462	0	0	0	0	575
2463	0	0	0	0	575
2464	0	0	0	0	575
2465	0	0	0	0	112
2466	0	0	0	0	450
2467	0	0	0	0	455
2468	0	0	0	0	460
2469	0	0	0	0	539
2470	0	0	0	0	544
2471	0	0	0	0	549
2472	0	0	0	0	554
2473	0	0	0	0	559
2474	0	0	0	0	564
2475	0	0	0	0	569
2476	0	0	0	0	574
2477	0	0	0	0	575
2478	0	0	0	0	575
2479	0	0	0	0	575
2480	0	0	0	0	575
2481	0	0	0	0	575
2482	0	0	0	0	575
2483	0	0	0	0	575
2484	0	0	0	0	575
2485	0	0	0	0	575
2486	0	0	0	0	575
2487	0	0	0	0	575
2488	0	0	0	0	575
2489	0	0	0	0	575
2490	0	0	0	0	575
2491	0	0	0	0	575
2492	0	0	0	0	167
2493	0	0	0	0	450
2494	0	0	0	0	455
2495	0	0	0	0	460
2496	0	0	0	0	465
2497	0	0	0	0	470
2498	0	0	0	0	475
2499	0	0	0	0	480
2500	0	0	0	0	475
2501	0	0	0	0	779
2502	0	0	0	0	575
2503	0	0	0	0	570
2504	0	0	0	0	565
2505	0	0	0	0	560
2506	0	0	0	0	555
2507	0	0	0	0	550
2508	0	0	0	0	545
2509	0	0	0	0	540
2510	0	0	0	0	535
2511	0	0	0	0	530
2512	0	0	0	0	525
2513	0	0	0	0	520
2514	0	0	0	0	515
2515	0	0	0	0	510
2516	0	0	0	0	505
2517	0	0	0	0	500
2518	0	0	0	0	495
2519	0	0	0	0	490
2520	0	0	0	0	485
2521	0	0	0	0	480
2522	0	0	0	0	475
2523	0	0	0	0	470
2524	0	0	0	0	465
2525	0	0	0	0	731
2526	0	0	0	0	575
2527	0	0	0	0	570
2528	0	0	0	0	526
2529	0	0	0	0	521
2530	0	0	0	0	516
2531	0	0	0	0	511
2532	0	0	0	0	506
2533	0	0	0	0	501
2534	0	0	0	0	496
2535	0	0	0	0	491
2536	0	0	0	0	177
2537	0	0	0	0	450
2538	0	0	0	0	450
2539	0	0	0	0	450
2540	0	0	0	0	450
2541	0	0	0	0	450
2542	0	0	0	0	450
2543	0	0	0	0	450
2544	0	0	0	0	450
2545	0	0	0	0	450
2546	0	0	0	0	450
2547	0	0	0	0	450
2548	0	0	0	0	450
2549	0	0	0	0	450
2550	0	0	0	0	450
2551	0	0	0	0	450
2552	0	0	0	0	450
2553	0	0	0	0	450
2554	0	0	0	0	450
2555	0	0	0	0	450
2556	0	0	0	0	450
2557	0	0	0	0	141
2558	0	0	0	0	450
2559	0	0	0	0	450
2560	0	0	0	0	450
2561	0	0	0	0	450
2562	0	0	0	0	450
2563	0	0	0	0	450
2564	0	0	0	0	450
2565	0	0	0	0	450
2566	0	0	0	0	450
2567	0	0	0	0	450
2568	0	0	0	0	450
2569	0	0	0	0	450
2570	0	0	0	0	450
2571	0	0	0	0	450
2572	0	0	0	0	450
2573	0	0	0	0	450
2574	0	0	0	0	450
2575	0	0	0	0	450
2576	0	0	0	0	450
2577	0	0	0	0	450
2578	0	0	0	0	450
2579	0	0	0	0	450
2580	0	0	0	0	450
2581	0	0	0	0	450
2582	0	0	0	0	450
2583	0	0	0	0	450
2584	0	0	0	0	450
2585	0	0	0	0	450
2586	0	0	0	0	450
2587	0	0	0	0	450
2588	0	0	0	0	450
2589	0	0	0	0	450
2590	0	0	0	0	450
2591	0	0	0	0	450
2592	0	0	0	0	450
2593	0	0	0	0	450
2594	0	0	0	0	381
2595	0	0	0	0	450
2596	0	0	0	0	450
2597	0	0	0	0	450
2598	0	0	0	0	450
2599	0	0	0	0	450
2600	0	0	0	0	450
2601	0	0	0	0	450
2602	0	0	0	0	450
2603	0	0	0	0	450
2604	0	0	0	0	450
2605	0	0	0	0	450
2606	0	0	0	0	450
2607	0	0	0	0	450
2608	0	0	0	0	450
2609	0	0	0	0	450
2610	0	0	0	0	450
2611	0	0	0	0	450
2612	0	0	0	0	758
2613	0	0	0	0	575
2614	0	0	0	0	570
2615	0	0	0	0	565
2616	0	0	0	0	560
2617	0	0	0	0	555
2618	0	0	0	0	550
2619	0	0	0	0	545
2620	0	0	0	0	540
2621	0	0	0	0	535
2622	0	0	0	0	530
2623	0	0	0	0	525
2624	0	0	0	0	520
2625	0	0	0	0	515
2626	0	0	0	0	510
2627	0	0	0	0	505
2628	0	0	0	0	500
2629	0	0	0	0	495
2630	0	0	0	0	490
2631	0	0	0	0	485
2632	0	0	0	0	480
2633	0	0	0	0	475
2634	0	0	0	0	470
2635	0	0	0	0	465
2636	0	0	0	0	460
2637	0	0	0	0	455
2638	0	0	0	0	450
2639	0	0	0	0	450
2640	0	0	0	0	758
2641	0	0	0	0	575
2642	0	0	0	0	570
2643	0	0	0	0	565
2644	0	0	0	0	348
2645	0	0	0	0	764
2646	0	0	0	0	575
2647	0	0	0	0	570
2648	0	0	0	0	565
2649	0	0	0	0	560
2650	0	0	0	0	555
2651	0	0	0	0	550
2652	0	0	0	0	545
2653	0	0	0	0	540
2654	0	0	0	0	535
2655	0	0	0	0	530
2656	0	0	0	0	525
2657	0	0	0	0	520
2658	0	0	0	0	515
2659	0	0	0	0	510
2660	0	0	0	0	505
2661	0	0	0	0	500
2662	0	0	0	0	495
2663	0	0	0	0	490
2664	0	0	0	0	485
2665	0	0	0	0	480
2666	0	0	0	0	475
2667	0	0	0	0	470
2668	0	0	0	0	465
2669	0	0	0	0	460
2670	0	0	0	0	455
2671	0	0	0	0	450
2672	0	0	0	0	450
2673	0	0	0	0	450
2674	0	0	0	0	450
2675	0	0	0	0	450
2676	0	0	0	0	450
2677	0	0	0	0	450
2678	0	0	0	0	450
2679	0	0	0	0	450
2680	0	0	0	0	450
2681	0	0	0	0	450
2682	0	0	0	0	450
2683	0	0	0	0	450
2684	0	0	0	0	450
2685	0	0	0	0	450
2686	0	0	0	0	450
2687	0	0	0	0	450
2688	0	0	0	0	450
2689	0	0	0	0	450
2690	0	0	0	0	450
2691	0	0	0	0	450
2692	0	0	0	0	450
2693	0	0	0	0	450
2694	0	0	0	0	450
2695	0	0	0	0	450
2696	0	0	0	0	450
2697	0	0	0	0	450
2698	0	0	0	0	450
2699	0	0	0	0	450
2700	0	0	0	0	505
2701	0	0	0	0	500
2702	0	0	0	0	495
2703	0	0	0	0	490
2704	0	0	0	0	485
2705	0	0	0	0	480
2706	0	0	0	0	475
2707	0	0	0	0	470
2708	0	0	0	0	465
2709	0	0	0	0	460
2710	0	0	0	0	455
2711	0	0	0	0	450
2712	0	0	0	0	450
2713	0	0	0	0	450
2714	0	0	0	0	450
2715	0	0	0	0	450
2716	0	0	0	0	450
2717	0	0	0	0	450
2718	0	0	0	0	450
2719	0	0	0	0	450
2720	0	0	0	0	450
2721	0	0	0	0	450
2722	0	0	0	0	450
2723	0	0	0	0	450
2724	0	0	0	0	450
2725	0	0	0	0	450
2726	0	0	0	0	450
2727	0	0	0	0	450
2728	0	0	0	0	450
2729	0	0	0	0	450
2730	0	0	0	0	220
2731	0	0	0	0	450
2732	0	0	0	0	450
2733	0	0	0	0	450
2734	0	0	0	0	450
2735	0	0	0	0	450
2736	0	0	0	0	450
2737	0	0	0	0	450
2738	0	0	0	0	450
2739	0	0	0	0	450
2740	0	0	0	0	450
2741	0	0	0	0	450
2742	0	0	0	0	450
2743	0	0	0	0	450
2744	0	0	0	0	450
2745	0	0	0	0	450
2746	0	0	0	0	450
2747	0	0	0	0	450
2748	0	0	0	0	450
2749	0	0	0	0	689
2750	0	0	0	0	575
2751	0	0	0	0	570
2752	0	0	0	0	565
2753	0	0	0	0	560
2754	0	0	0	0	555
2755	0	0	0	0	550
2756	0	0	0	0	545
2757	0	0	0	0	540
2758	0	0	0	0	535
2759	0	0	0	0	530
2760	0	0	0	0	525
2761	0	0	0	0	794
2762	0	0	0	0	575
2763	0	0	0	0	570
2764	0	0	0	0	565
2765	0	0	0	0	560
2766	0	0	0	0	555
2767	0	0	0	0	550
2768	0	0	0	0	545
2769	0	0	0	0	540
2770	0	0	0	0	535
2771	0	0	0	0	530
2772	0	0	0	0	525
2773	0	0	0	0	520
2774	0	0	0	0	515
2775	0	0	0	0	510
2776	0	0	0	0	505
2777	0	0	0	0	500
2778	0	0	0	0	495
2779	0	0	0	0	490
2780	0	0	0	0	485
2781	0	0	0	0	480
2782	0	0	0	0	475
2783	0	0	0	0	470
2784	0	0	0	0	465
2785	0	0	0	0	460
2786	0	0	0	0	455
2787	0	0	0	0	450
2788	0	0	0	0	450
2789	0	0	0	0	450
2790	0	0	0	0	450
2791	0	0	0	0	450
2792	0	0	0	0	450
2793	0	0	0	0	450
2794	0	0	0	0	450
2795	0	0	0	0	450
2796	0	0	0	0	450
2797	0	0	0	0	450
2798	0	0	0	0	450
2799	0	0	0	0	450
2800	0	0	0	0	455
2801	0	0	0	0	460
2802	0	0	0	0	465
2803	0	0	0	0	470
2804	0	0	0	0	475
2805	0	0	0	0	480
2806	0	0	0	0	560
2807	0	0	0	0	565
2808	0	0	0	0	570
2809	0	0	0	0	575
2810	0	0	0	0	575
2811	0	0	0	0	575
2812	0	0	0	0	575
2813	0	0	0	0	575
2814	0	0	0	0	575
2815	0	0	0	0	575
2816	0	0	0	0	575
2817	0	0	0	0	575
2818	0	0	0	0	575
2819	0	0	0	0	575
2820	0	0	0	0	575
2821	0	0	0	0	575
2822	0	0	0	0	781
2823	0	0	0	0	575
2824	0	0	0	0	575
2825	0	0	0	0	575
2826	0	0	0	0	575
2827	0	0	0	0	575
2828	0	0	0	0	575
2829	0	0	0	0	575
2830	0	0	0	0	575
2831	0	0	0	0	575
2832	0	0	0	0	407
2833	0	0	0	0	450
2834	0	0	0	0	455
2835	0	0	0	0	460
2836	0	0	0	0	317
2837	0	0	0	0	450
2838	0	0	0	0	552
2839	0	0	0	0	465
2840	0	0	0	0	470
2841	0	0	0	0	142
2842	0	0	0	0	450
2843	0	0	0	0	455
2844	0	0	0	0	460
2845	0	0	0	0	465
2846	0	0	0	0	470
2847	0	0	0	0	475
2848	0	0	0	0	480
2849	0	0	0	0	485
2850	0	0	0	0	490
2851	0	0	0	0	495
2852	0	0	0	0	500
2853	0	0	0	0	505
2854	0	0	0	0	510
2855	0	0	0	0	515
2856	0	0	0	0	520
2857	0	0	0	0	525
2858	0	0	0	0	530
2859	0	0	0	0	535
2860	0	0	0	0	540
2861	0	0	0	0	545
2862	0	0	0	0	550
2863	0	0	0	0	555
2864	0	0	0	0	560
2865	0	0	0	0	565
2866	0	0	0	0	570
2867	0	0	0	0	575
2868	0	0	0	0	575
2869	0	0	0	0	575
2870	0	0	0	0	575
2871	0	0	0	0	575
2872	0	0	0	0	575
2873	0	0	0	0	575
2874	0	0	0	0	575
2875	0	0	0	0	575
2876	0	0	0	0	575
2877	0	0	0	0	575
2878	0	0	0	0	575
2879	0	0	0	0	575
2880	0	0	0	0	325
2881	0	0	0	0	450
2882	0	0	0	0	455
2883	0	0	0	0	460
2884	0	0	0	0	465
2885	0	0	0	0	470
2886	0	0	0	0	489
2887	0	0	0	0	494
2888	0	0	0	0	499
2889	0	0	0	0	504
2890	0	0	0	0	509
2891	0	0	0	0	514
2892	0	0	0	0	519
2893	0	0	0	0	524
2894	0	0	0	0	529
2895	0	0	0	0	534
2896	0	0	0	0	539
2897	0	0	0	0	544
2898	0	0	0	0	549
2899	0	0	0	0	554
2900	0	0	0	0	559
2901	0	0	0	0	564
2902	0	0	0	0	569
2903	0	0	0	0	574
2904	0	0	0	0	575
2905	0	0	0	0	575
2906	0	0	0	0	575
2907	0	0	0	0	575
2908	0	0	0	0	231
2909	0	0	0	0	450
2910	0	0	0	0	455
2911	0	0	0	0	460
2912	0	0	0	0	465
2913	0	0	0	0	470
2914	0	0	0	0	475
2915	0	0	0	0	480
2916	0	0	0	0	485
2917	0	0	0	0	490
2918	0	0	0	0	495
2919	0	0	0	0	500
2920	0	0	0	0	327
2921	0	0	0	0	450
2922	0	0	0	0	455
2923	0	0	0	0	460
2924	0	0	0	0	465
2925	0	0	0	0	470
2926	0	0	0	0	475
2927	0	0	0	0	480
2928	0	0	0	0	485
2929	0	0	0	0	490
2930	0	0	0	0	495
2931	0	0	0	0	500
2932	0	0	0	0	505
2933	0	0	0	0	510
2934	0	0	0	0	515
2935	0	0	0	0	520
2936	0	0	0	0	525
2937	0	0	0	0	530
2938	0	0	0	0	535
2939	0	0	0	0	540
2940	0	0	0	0	545
2941	0	0	0	0	550
2942	0	0	0	0	555
2943	0	0	0	0	560
2944	0	0	0	0	565
2945	0	0	0	0	570
2946	0	0	0	0	575
2947	0	0	0	0	575
2948	0	0	0	0	575
2949	0	0	0	0	575
2950	0	0	0	0	575
2951	0	0	0	0	575
2952	0	0	0	0	575
2953	0	0	0	0	575
2954	0	0	0	0	575
2955	0	0	0	0	575
2956	0	0	0	0	575
2957	0	0	0	0	575
2958	0	0	0	0	328
2959	0	0	0	0	381
2960	0	0	0	0	450
2961	0	0	0	0	639
2962	0	0	0	0	575
2963	0	0	0	0	575
2964	0	0	0	0	575
2965	0	0	0	0	575
2966	0	0	0	0	575
2967	0	0	0	0	575
2968	0	0	0	0	575
2969	0	0	0	0	575
2970	0	0	0	0	575
2971	0	0	0	0	575
2972	0	0	0	0	162
2973	0	0	0	0	450
2974	0	0	0	0	455
2975	0	0	0	0	460
2976	0	0	0	0	465
2977	0	0	0	0	470
2978	0	0	0	0	475
2979	0	0	0	0	480
2980	0	0	0	0	485
2981	0	0	0	0	490
2982	0	0	0	0	495
2983	0	0	0	0	500
2984	0	0	0	0	505
2985	0	0	0	0	510
2986	0	0	0	0	515
2987	0	0	0	0	520
2988	0	0	0	0	525
2989	0	0	0	0	530
2990	0	0	0	0	535
2991	0	0	0	0	540
2992	0	0	0	0	545
2993	0	0	0	0	550
2994	0	0	0	0	555
2995	0	0	0	0	560
2996	0	0	0	0	565
2997	0	0	0	0	570
2998	0	0	0	0	575
2999	0	0	0	0	575
3000	0	0	0	0	570
3001	0	0	0	0	565
3002	0	0	0	0	560
3003	0	0	0	0	555
3004	0	0	0	0	550
3005	0	0	0	0	545
3006	0	0	0	0	540
3007	0	0	0	0	535
3008	0	0	0	0	530
3009	0	0	0	0	525
3010	0	0	0	0	520
3011	0	0	0	0	515
3012	0	0	0	0	510
3013	0	0	0	0	505
3014	0	0	0	0	500
3015	0	0	0	0	495
3016	0	0	0	0	490
3017	0	0	0	0	485
3018	0	0	0	0	480
3019	0	0	0	0	475
3020	0	0	0	0	470
3021	0	0	0	0	465
3022	0	0	0	0	460
3023	0	0	0	0	455
3024	0	0	0	0	450
3025	0	0	0	0	450
3026	0	0	0	0	450
3027	0	0	0	0	450
3028	0	0	0	0	450
3029	0	0	0	0	670
3030	0	0	0	0	575
3031	0	0	0	0	570
3032	0	0	0	0	565
3033	0	0	0	0	560
3034	0	0	0	0	555
3035	0	0	0	0	550
3036	0	0	0	0	545
3037	0	0	0	0	540
3038	0	0	0	0	535
3039	0	0	0	0	530
3040	0	0	0	0	525
3041	0	0	0	0	520
3042	0	0	0	0	515
3043	0	0	0	0	510
3044	0	0	0	0	505
3045	0	0	0	0	500
3046	0	0	0	0	599
3047	0	0	0	0	575
3048	0	0	0	0	570
3049	0	0	0	0	565
3050	0	0	0	0	560
3051	0	0	0	0	555
3052	0	0	0	0	550
3053	0	0	0	0	545
3054	0	0	0	0	540
3055	0	0	0	0	535
3056	0	0	0	0	530
3057	0	0	0	0	525
3058	0	0	0	0	520
3059	0	0	0	0	515
3060	0	0	0	0	510
3061	0	0	0	0	505
3062	0	0	0	0	500
3063	0	0	0	0	495
3064	0	0	0	0	490
3065	0	0	0	0	485
3066	0	0	0	0	480
3067	0	0	0	0	475
3068	0	0	0	0	470
3069	0	0	0	0	465
3070	0	0	0	0	460
3071	0	0	0	0	455
3072	0	0	0	0	593
3073	0	0	0	0	575
3074	0	0	0	0	398
3075	0	0	0	0	450
3076	0	0	0	0	450
3077	0	0	0	0	370
3078	0	0	0	0	450
3079	0	0	0	0	450
3080	0	0	0	0	450
3081	0	0	0	0	450
3082	0	0	0	0	450
3083	0	0	0	0	450
3084	0	0	0	0	450
3085	0	0	0	0	450
3086	0	0	0	0	450
3087	0	0	0	0	450
3088	0	0	0	0	450
3089	0	0	0	0	450
3090	0	0	0	0	450
3091	0	0	0	0	450
3092	0	0	0	0	450
3093	0	0	0	0	450
3094	0	0	0	0	450
3095	0	0	0	0	450
3096	0	0	0	0	450
3097	0	0	0	0	450
3098	0	0	0	0	450
3099	0	0	0	0	450
3100	0	0	0	0	450
3101	0	0	0	0	450
3102	0	0	0	0	450
3103	0	0	0	0	450
3104	0	0	0	0	450
3105	0	0	0	0	450
3106	0	0	0	0	450
3107	0	0	0	0	450
3108	0	0	0	0	450
3109	0	0	0	0	450
3110	0	0	0	0	450
3111	0	0	0	0	450
3112	0	0	0	0	450
3113	0	0	0	0	450
3114	0	0	0	0	450
3115	0	0	0	0	450
3116	0	0	0	0	450
3117	0	0	0	0	450
3118	0	0	0	0	450
3119	0	0	0	0	450
3120	0	0	0	0	450
3121	0	0	0	0	450
3122	0	0	0	0	450
3123	0	0	0	0	450
3124	0	0	0	0	450
3125	0	0	0	0	450
3126	0	0	0	0	450
3127	0	0	0	0	450
3128	0	0	0	0	450
3129	0	0	0	0	450
3130	0	0	0	0	450
3131	0	0	0	0	450
3132	0	0	0	0	450
3133	0	0	0	0	450
3134	0	0	0	0	450
3135	0	0	0	0	450
3136	0	0	0	0	450
3137	0	0	0	0	450
3138	0	0	0	0	450
3139	0	0	0	0	450
3140	0	0	0	0	450
3141	0	0	0	0	450
3142	0	0	0	0	450
3143	0	0	0	0	450
3144	0	0	0	0	450
3145	0	0	0	0	450
3146	0	0	0	0	450
3147	0	0	0	0	450
3148	0	0	0	0	450
3149	0	0	0	0	450
3150	0	0	0	0	450
3151	0	0	0	0	450
3152	0	0	0	0	450
3153	0	0	0	0	326
3154	0	0	0	0	450
3155	0	0	0	0	602
3156	0	0	0	0	575
3157	0	0	0	0	570
3158	0	0	0	0	565
3159	0	0	0	0	560
3160	0	0	0	0	555
3161	0	0	0	0	550
3162	0	0	0	0	545
3163	0	0	0	0	540
3164	0	0	0	0	535
3165	0	0	0	0	530
3166	0	0	0	0	525
3167	0	0	0	0	520
3168	0	0	0	0	515
3169	0	0	0	0	510
3170	0	0	0	0	505
3171	0	0	0	0	500
3172	0	0	0	0	495
3173	0	0	0	0	490
3174	0	0	0	0	485
3175	0	0	0	0	480
3176	0	0	0	0	475
3177	0	0	0	0	470
3178	0	0	0	0	465
3179	0	0	0	0	460
3180	0	0	0	0	455
3181	0	0	0	0	450
3182	0	0	0	0	379
3183	0	0	0	0	450
3184	0	0	0	0	450
3185	0	0	0	0	450
3186	0	0	0	0	450
3187	0	0	0	0	450
3188	0	0	0	0	450
3189	0	0	0	0	450
3190	0	0	0	0	450
3191	0	0	0	0	450
3192	0	0	0	0	450
3193	0	0	0	0	450
3194	0	0	0	0	450
3195	0	0	0	0	450
3196	0	0	0	0	450
3197	0	0	0	0	450
3198	0	0	0	0	450
3199	0	0	0	0	450
3200	0	0	0	0	455
3201	0	0	0	0	460
3202	0	0	0	0	465
3203	0	0	0	0	470
3204	0	0	0	0	475
3205	0	0	0	0	480
3206	0	0	0	0	485
3207	0	0	0	0	490
3208	0	0	0	0	495
3209	0	0	0	0	500
3210	0	0	0	0	505
3211	0	0	0	0	510
3212	0	0	0	0	515
3213	0	0	0	0	520
3214	0	0	0	0	525
3215	0	0	0	0	530
3216	0	0	0	0	535
3217	0	0	0	0	540
3218	0	0	0	0	545
3219	0	0	0	0	550
3220	0	0	0	0	555
3221	0	0	0	0	560
3222	0	0	0	0	565
3223	0	0	0	0	570
3224	0	0	0	0	575
3225	0	0	0	0	575
3226	0	0	0	0	575
3227	0	0	0	0	575
3228	0	0	0	0	575
3229	0	0	0	0	575
3230	0	0	0	0	575
3231	0	0	0	0	575
3232	0	0	0	0	575
3233	0	0	0	0	575
3234	0	0	0	0	575
3235	0	0	0	0	575
3236	0	0	0	0	575
3237	0	0	0	0	575
3238	0	0	0	0	575
3239	0	0	0	0	575
3240	0	0	0	0	575
3241	0	0	0	0	575
3242	0	0	0	0	575
3243	0	0	0	0	575
3244	0	0	0	0	575
3245	0	0	0	0	575
3246	0	0	0	0	575
3247	0	0	0	0	575
3248	0	0	0	0	575
3249	0	0	0	0	575
3250	0	0	0	0	575
3251	0	0	0	0	575
3252	0	0	0	0	575
3253	0	0	0	0	575
3254	0	0	0	0	575
3255	0	0	0	0	575
3256	0	0	0	0	575
3257	0	0	0	0	575
3258	0	0	0	0	575
3259	0	0	0	0	575
3260	0	0	0	0	575
3261	0	0	0	0	575
3262	0	0	0	0	575
3263	0	0	0	0	575
3264	0	0	0	0	575
3265	0	0	0	0	608
3266	0	0	0	0	575
3267	0	0	0	0	575
3268	0	0	0	0	575
3269	0	0	0	0	575
3270	0	0	0	0	575
3271	0	0	0	0	575
3272	0	0	0	0	575
3273	0	0	0	0	575
3274	0	0	0	0	575
3275	0	0	0	0	575
3276	0	0	0	0	575
3277	0	0	0	0	575
3278	0	0	0	0	575
3279	0	0	0	0	575
3280	0	0	0	0	116
3281	0	0	0	0	450
3282	0	0	0	0	423
3283	0	0	0	0	450
3284	0	0	0	0	455
3285	0	0	0	0	460
3286	0	0	0	0	465
3287	0	0	0	0	470
3288	0	0	0	0	475
3289	0	0	0	0	480
3290	0	0	0	0	485
3291	0	0	0	0	490
3292	0	0	0	0	495
3293	0	0	0	0	500
3294	0	0	0	0	505
3295	0	0	0	0	510
3296	0	0	0	0	515
3297	0	0	0	0	761
3298	0	0	0	0	575
3299	0	0	0	0	575
3300	0	0	0	0	575
3301	0	0	0	0	575
3302	0	0	0	0	643
3303	0	0	0	0	575
3304	0	0	0	0	575
3305	0	0	0	0	575
3306	0	0	0	0	575
3307	0	0	0	0	575
3308	0	0	0	0	575
3309	0	0	0	0	575
3310	0	0	0	0	575
3311	0	0	0	0	575
3312	0	0	0	0	575
3313	0	0	0	0	575
3314	0	0	0	0	575
3315	0	0	0	0	575
3316	0	0	0	0	575
3317	0	0	0	0	575
3318	0	0	0	0	575
3319	0	0	0	0	575
3320	0	0	0	0	575
3321	0	0	0	0	575
3322	0	0	0	0	575
3323	0	0	0	0	575
3324	0	0	0	0	575
3325	0	0	0	0	575
3326	0	0	0	0	575
3327	0	0	0	0	575
3328	0	0	0	0	575
3329	0	0	0	0	575
3330	0	0	0	0	575
3331	0	0	0	0	575
3332	0	0	0	0	487
3333	0	0	0	0	492
3334	0	0	0	0	497
3335	0	0	0	0	502
3336	0	0	0	0	507
3337	0	0	0	0	512
3338	0	0	0	0	517
3339	0	0	0	0	522
3340	0	0	0	0	527
3341	0	0	0	0	532
3342	0	0	0	0	537
3343	0	0	0	0	542
3344	0	0	0	0	547
3345	0	0	0	0	163
3346	0	0	0	0	450
3347	0	0	0	0	455
3348	0	0	0	0	460
3349	0	0	0	0	465
3350	0	0	0	0	470
3351	0	0	0	0	475
3352	0	0	0	0	480
3353	0	0	0	0	485
3354	0	0	0	0	490
3355	0	0	0	0	495
3356	0	0	0	0	500
3357	0	0	0	0	505
3358	0	0	0	0	510
3359	0	0	0	0	515
3360	0	0	0	0	520
3361	0	0	0	0	525
3362	0	0	0	0	530
3363	0	0	0	0	535
3364	0	0	0	0	540
3365	0	0	0	0	545
3366	0	0	0	0	550
3367	0	0	0	0	555
3368	0	0	0	0	560
3369	0	0	0	0	565
3370	0	0	0	0	570
3371	0	0	0	0	575
3372	0	0	0	0	575
3373	0	0	0	0	575
3374	0	0	0	0	575
3375	0	0	0	0	575
3376	0	0	0	0	575
3377	0	0	0	0	575
3378	0	0	0	0	575
3379	0	0	0	0	575
3380	0	0	0	0	575
3381	0	0	0	0	575
3382	0	0	0	0	575
3383	0	0	0	0	575
3384	0	0	0	0	575
3385	0	0	0	0	575
3386	0	0	0	0	575
3387	0	0	0	0	575
3388	0	0	0	0	575
3389	0	0	0	0	575
3390	0	0	0	0	575
3391	0	0	0	0	575
3392	0	0	0	0	575
3393	0	0	0	0	575
3394	0	0	0	0	575
3395	0	0	0	0	575
3396	0	0	0	0	575
3397	0	0	0	0	575
3398	0	0	0	0	575
3399	0	0	0	0	575
3400	0	0	0	0	575
3401	0	0	0	0	575
3402	0	0	0	0	575
3403	0	0	0	0	575
3404	0	0	0	0	575
3405	0	0	0	0	575
3406	0	0	0	0	575
3407	0	0	0	0	575
3408	0	0	0	0	575
3409	0	0	0	0	575
3410	0	0	0	0	575
3411	0	0	0	0	575
3412	0	0	0	0	575
3413	0	0	0	0	575
3414	0	0	0	0	500
3415	0	0	0	0	505
3416	0	0	0	0	510
3417	0	0	0	0	515
3418	0	0	0	0	520
3419	0	0	0	0	525
3420	0	0	0	0	530
3421	0	0	0	0	535
3422	0	0	0	0	540
3423	0	0	0	0	545
3424	0	0	0	0	550
3425	0	0	0	0	555
3426	0	0	0	0	560
3427	0	0	0	0	565
3428	0	0	0	0	570
3429	0	0	0	0	575
3430	0	0	0	0	575
3431	0	0	0	0	575
3432	0	0	0	0	575
3433	0	0	0	0	575
3434	0	0	0	0	575
3435	0	0	0	0	575
3436	0	0	0	0	575
3437	0	0	0	0	575
3438	0	0	0	0	575
3439	0	0	0	0	575
3440	0	0	0	0	575
3441	0	0	0	0	575
3442	0	0	0	0	128
3443	0	0	0	0	450
3444	0	0	0	0	455
3445	0	0	0	0	460
3446	0	0	0	0	651
3447	0	0	0	0	575
3448	0	0	0	0	575
3449	0	0	0	0	575
3450	0	0	0	0	575
3451	0	0	0	0	575
3452	0	0	0	0	575
3453	0	0	0	0	575
3454	0	0	0	0	575
3455	0	0	0	0	575
3456	0	0	0	0	575
3457	0	0	0	0	575
3458	0	0	0	0	575
3459	0	0	0	0	575
3460	0	0	0	0	575
3461	0	0	0	0	575
3462	0	0	0	0	575
3463	0	0	0	0	575
3464	0	0	0	0	575
3465	0	0	0	0	575
3466	0	0	0	0	575
3467	0	0	0	0	781
3468	0	0	0	0	575
3469	0	0	0	0	575
3470	0	0	0	0	575
3471	0	0	0	0	575
3472	0	0	0	0	575
3473	0	0	0	0	575
3474	0	0	0	0	575
3475	0	0	0	0	575
3476	0	0	0	0	542
3477	0	0	0	0	753
3478	0	0	0	0	575
3479	0	0	0	0	114
3480	0	0	0	0	450
3481	0	0	0	0	455
3482	0	0	0	0	460
3483	0	0	0	0	465
3484	0	0	0	0	470
3485	0	0	0	0	475
3486	0	0	0	0	480
3487	0	0	0	0	485
3488	0	0	0	0	490
3489	0	0	0	0	495
3490	0	0	0	0	500
3491	0	0	0	0	505
3492	0	0	0	0	510
3493	0	0	0	0	515
3494	0	0	0	0	520
3495	0	0	0	0	525
3496	0	0	0	0	530
3497	0	0	0	0	535
3498	0	0	0	0	540
3499	0	0	0	0	545