# OpenSignals Text File Format. Version 1
# {"84:BA:20:5E:FF:7F": {"position": 0, "device": "bitalino_rev", "device name": "84:BA:20:5E:FF:7F", "device connection": "BTH84:BA:20:5E:FF:7F", "sampling rate": 100, "resolution": [4, 1, 1, 1, 1, 10], "firmware version": 1282, "comments": "", "keywords": "", "mode": 0, "sync interval": 2, "date": "2024-3-6", "time": "19:2:40.159", "channels": [1], "sensor": ["EMGBITREV"], "label": ["A1"], "column": ["nSeq", "I1", "I2", "O1", "O2", "A1"], "special": [{}], "digital IO": [0, 0, 1, 1]}}
# EndOfHeader
0	0	0	0	0	357
1	0	0	0	0	560
2	0	0	0	0	358
3	0	0	0	0	568
4	0	0	0	0	362
5	0	0	0	0	556
6	0	0	0	0	364
7	0	0	0	0	557
8	0	0	0	0	364
9	0	0	0	0	559
10	0	0	0	0	362
11	0	0	0	0	553
12	0	0	0	0	364
13	0	0	0	0	566
14	0	0	0	0	372
15	0	0	0	0	553
0	0	0	0	0	376
1	0	0	0	0	554
2	0	0	0	0	366
3	0	0	0	0	569
4	0	0	0	0	360
5	0	0	0	0	561
6	0	0	0	0	367
7	0	0	0	0	556
8	0	0	0	0	357
9	0	0	0	0	549
10	0	0	0	0	366
11	0	0	0	0	550
12	0	0	0	0	372
13	0	0	0	0	565
14	0	0	0	0	368
15	0	0	0	0	555
0	0	0	0	0	376
1	0	0	0	0	553
2	0	0	0	0	371
3	0	0	0	0	550
4	0	0	0	0	376
5	0	0	0	0	552
6	0	0	0	0	374
7	0	0	0	0	556
8	0	0	0	0	373
9	0	0	0	0	549
10	0	0	0	0	380
11	0	0	0	0	548
12	0	0	0	0	372
13	0	0	0	0	557
14	0	0	0	0	372
15	0	0	0	0	541
0	0	0	0	0	381
1	0	0	0	0	553
2	0	0	0	0	371
3	0	0	0	0	544
4	0	0	0	0	382
5	0	0	0	0	548
6	0	0	0	0	379
7	0	0	0	0	552
8	0	0	0	0	384
9	0	0	0	0	540
10	0	0	0	0	373
11	0	0	0	0	550
12	0	0	0	0	379
13	0	0	0	0	545
14	0	0	0	0	390
15	0	0	0	0	531
0	0	0	0	0	384
1	0	0	0	0	541
2	0	0	0	0	384
3	0	0	0	0	540
4	0	0	0	0	393
5	0	0	0	0	543
6	0	0	0	0	384
7	0	0	0	0	538
8	0	0	0	0	393
9	0	0	0	0	535
10	0	0	0	0	389
11	0	0	0	0	539
12	0	0	0	0	393
13	0	0	0	0	530
14	0	0	0	0	399
15	0	0	0	0	535
0	0	0	0	0	400
1	0	0	0	0	534
2	0	0	0	0	396
3	0	0	0	0	521
4	0	0	0	0	401
5	0	0	0	0	538
6	0	0	0	0	403
7	0	0	0	0	528
8	0	0	0	0	401
9	0	0	0	0	527
10	0	0	0	0	403
11	0	0	0	0	534
12	0	0	0	0	399
13	0	0	0	0	518
14	0	0	0	0	404
15	0	0	0	0	534
0	0	0	0	0	405
1	0	0	0	0	527
2	0	0	0	0	400
3	0	0	0	0	524
4	0	0	0	0	409
5	0	0	0	0	530
6	0	0	0	0	399
7	0	0	0	0	520
8	0	0	0	0	410
9	0	0	0	0	525
10	0	0	0	0	405
11	0	0	0	0	519
12	0	0	0	0	416
13	0	0	0	0	515
14	0	0	0	0	411
15	0	0	0	0	532
0	0	0	0	0	400
1	0	0	0	0	520
2	0	0	0	0	408
3	0	0	0	0	520
4	0	0	0	0	414
5	0	0	0	0	518
6	0	0	0	0	419
7	0	0	0	0	508
8	0	0	0	0	423
9	0	0	0	0	530
10	0	0	0	0	406
11	0	0	0	0	526
12	0	0	0	0	418
13	0	0	0	0	513
14	0	0	0	0	411
15	0	0	0	0	515
0	0	0	0	0	427
1	0	0	0	0	502
2	0	0	0	0	429
3	0	0	0	0	518
4	0	0	0	0	429
5	0	0	0	0	514
6	0	0	0	0	432
7	0	0	0	0	503
8	0	0	0	0	421
9	0	0	0	0	513
10	0	0	0	0	432
11	0	0	0	0	502
12	0	0	0	0	435
13	0	0	0	0	505
14	0	0	0	0	446
15	0	0	0	0	489
0	0	0	0	0	462
1	0	0	0	0	476
2	0	0	0	0	466
3	0	0	0	0	478
4	0	0	0	0	466
5	0	0	0	0	476
6	0	0	0	0	469
7	0	0	0	0	477
8	0	0	0	0	461
9	0	0	0	0	475
10	0	0	0	0	476
11	0	0	0	0	476
12	0	0	0	0	469
13	0	0	0	0	475
14	0	0	0	0	467
15	0	0	0	0	474
0	0	0	0	0	472
1	0	0	0	0	468
2	0	0	0	0	477
3	0	0	0	0	471
4	0	0	0	0	464
5	0	0	0	0	475
6	0	0	0	0	466
7	0	0	0	0	478
8	0	0	0	0	461
9	0	0	0	0	475
10	0	0	0	0	459
11	0	0	0	0	486
12	0	0	0	0	457
13	0	0	0	0	480
14	0	0	0	0	456
15	0	0	0	0	487
0	0	0	0	0	450
1	0	0	0	0	497
2	0	0	0	0	457
3	0	0	0	0	489
4	0	0	0	0	455
5	0	0	0	0	483
6	0	0	0	0	462
7	0	0	0	0	490
8	0	0	0	0	449
9	0	0	0	0	487
10	0	0	0	0	450
11	0	0	0	0	490
12	0	0	0	0	453
13	0	0	0	0	494
14	0	0	0	0	437
15	0	0	0	0	552
0	0	0	0	0	379
1	0	0	0	0	532
2	0	0	0	0	380
3	0	0	0	0	547
4	0	0	0	0	386
5	0	0	0	0	540
6	0	0	0	0	380
7	0	0	0	0	564
8	0	0	0	0	374
9	0	0	0	0	549
10	0	0	0	0	380
11	0	0	0	0	566
12	0	0	0	0	373
13	0	0	0	0	567
14	0	0	0	0	377
15	0	0	0	0	553
0	0	0	0	0	384
1	0	0	0	0	561
2	0	0	0	0	370
3	0	0	0	0	549
4	0	0	0	0	373
5	0	0	0	0	561
6	0	0	0	0	364
7	0	0	0	0	567
8	0	0	0	0	373
9	0	0	0	0	553
10	0	0	0	0	370
11	0	0	0	0	573
12	0	0	0	0	358
13	0	0	0	0	580
14	0	0	0	0	365
15	0	0	0	0	558
0	0	0	0	0	355
1	0	0	0	0	573
2	0	0	0	0	358
3	0	0	0	0	568
4	0	0	0	0	354
5	0	0	0	0	588
6	0	0	0	0	341
7	0	0	0	0	591
8	0	0	0	0	342
9	0	0	0	0	581
10	0	0	0	0	347
11	0	0	0	0	596
12	0	0	0	0	340
13	0	0	0	0	583
14	0	0	0	0	341
15	0	0	0	0	599
0	0	0	0	0	326
1	0	0	0	0	616
2	0	0	0	0	330
3	0	0	0	0	584
4	0	0	0	0	323
5	0	0	0	0	609
6	0	0	0	0	318
7	0	0	0	0	617
8	0	0	0	0	322
9	0	0	0	0	605
10	0	0	0	0	318
11	0	0	0	0	612
12	0	0	0	0	321
13	0	0	0	0	595
14	0	0	0	0	313
15	0	0	0	0	620
0	0	0	0	0	309
1	0	0	0	0	625
2	0	0	0	0	308
3	0	0	0	0	601
4	0	0	0	0	311
5	0	0	0	0	625
6	0	0	0	0	308
7	0	0	0	0	630
8	0	0	0	0	305
9	0	0	0	0	624
10	0	0	0	0	300
11	0	0	0	0	624
12	0	0	0	0	303
13	0	0	0	0	612
14	0	0	0	0	299
15	0	0	0	0	634
0	0	0	0	0	293
1	0	0	0	0	634
2	0	0	0	0	301
3	0	0	0	0	629
4	0	0	0	0	292
5	0	0	0	0	638
6	0	0	0	0	300
7	0	0	0	0	615
8	0	0	0	0	296
9	0	0	0	0	637
10	0	0	0	0	285
11	0	0	0	0	644
12	0	0	0	0	290
13	0	0	0	0	620
14	0	0	0	0	301
15	0	0	0	0	638
0	0	0	0	0	292
1	0	0	0	0	640
2	0	0	0	0	298
3	0	0	0	0	638
4	0	0	0	0	291
5	0	0	0	0	642
6	0	0	0	0	289
7	0	0	0	0	624
8	0	0	0	0	301
9	0	0	0	0	645
10	0	0	0	0	291
11	0	0	0	0	644
12	0	0	0	0	297
13	0	0	0	0	629
14	0	0	0	0	302
15	0	0	0	0	640
0	0	0	0	0	299
1	0	0	0	0	628
2	0	0	0	0	294
3	0	0	0	0	643
4	0	0	0	0	289
5	0	0	0	0	635
6	0	0	0	0	302
7	0	0	0	0	631
8	0	0	0	0	300
9	0	0	0	0	636
10	0	0	0	0	293
11	0	0	0	0	629
12	0	0	0	0	294
13	0	0	0	0	639
14	0	0	0	0	302
15	0	0	0	0	638
0	0	0	0	0	297
1	0	0	0	0	620
2	0	0	0	0	295
3	0	0	0	0	636
4	0	0	0	0	302
5	0	0	0	0	630
6	0	0	0	0	300
7	0	0	0	0	638
8	0	0	0	0	297
9	0	0	0	0	641
10	0	0	0	0	305
11	0	0	0	0	632
12	0	0	0	0	296
13	0	0	0	0	637
14	0	0	0	0	289
15	0	0	0	0	631
0	0	0	0	0	301
1	0	0	0	0	633
2	0	0	0	0	303
3	0	0	0	0	644
4	0	0	0	0	298
5	0	0	0	0	632
6	0	0	0	0	298
7	0	0	0	0	634
8	0	0	0	0	301
9	0	0	0	0	631
10	0	0	0	0	292
11	0	0	0	0	620
12	0	0	0	0	304
13	0	0	0	0	632
14	0	0	0	0	303
15	0	0	0	0	632
0	0	0	0	0	302
1	0	0	0	0	617
2	0	0	0	0	308
3	0	0	0	0	633
4	0	0	0	0	305
5	0	0	0	0	634
6	0	0	0	0	300
7	0	0	0	0	633
8	0	0	0	0	297
9	0	0	0	0	630
10	0	0	0	0	302
11	0	0	0	0	624
12	0	0	0	0	298
13	0	0	0	0	627
14	0	0	0	0	302
15	0	0	0	0	630
0	0	0	0	0	304
1	0	0	0	0	627
2	0	0	0	0	309
3	0	0	0	0	633
4	0	0	0	0	297
5	0	0	0	0	627
6	0	0	0	0	294
7	0	0	0	0	624
8	0	0	0	0	304
9	0	0	0	0	625
10	0	0	0	0	302
11	0	0	0	0	631
12	0	0	0	0	304
13	0	0	0	0	627
14	0	0	0	0	302
15	0	0	0	0	625
0	0	0	0	0	300
1	0	0	0	0	625
2	0	0	0	0	300
3	0	0	0	0	633
4	0	0	0	0	304
5	0	0	0	0	622
6	0	0	0	0	316
7	0	0	0	0	620
8	0	0	0	0	306
9	0	0	0	0	628
10	0	0	0	0	308
11	0	0	0	0	624
12	0	0	0	0	303
13	0	0	0	0	620
14	0	0	0	0	305
15	0	0	0	0	627
0	0	0	0	0	302
1	0	0	0	0	618
2	0	0	0	0	313
3	0	0	0	0	619
4	0	0	0	0	308
5	0	0	0	0	617
6	0	0	0	0	310
7	0	0	0	0	614
8	0	0	0	0	312
9	0	0	0	0	620
10	0	0	0	0	308
11	0	0	0	0	626
12	0	0	0	0	307
13	0	0	0	0	616
14	0	0	0	0	309
15	0	0	0	0	617
0	0	0	0	0	319
1	0	0	0	0	617
2	0	0	0	0	313
3	0	0	0	0	615
4	0	0	0	0	311
5	0	0	0	0	618
6	0	0	0	0	324
7	0	0	0	0	612
8	0	0	0	0	312
9	0	0	0	0	617
10	0	0	0	0	308
11	0	0	0	0	617
12	0	0	0	0	315
13	0	0	0	0	605
14	0	0	0	0	309
15	0	0	0	0	613
0	0	0	0	0	321
1	0	0	0	0	619
2	0	0	0	0	318
3	0	0	0	0	621
4	0	0	0	0	317
5	0	0	0	0	614
6	0	0	0	0	312
7	0	0	0	0	612
8	0	0	0	0	314
9	0	0	0	0	619
10	0	0	0	0	322
11	0	0	0	0	616
12	0	0	0	0	314
13	0	0	0	0	624
14	0	0	0	0	323
15	0	0	0	0	617
0	0	0	0	0	320
1	0	0	0	0	613
2	0	0	0	0	313
3	0	0	0	0	612
4	0	0	0	0	321
5	0	0	0	0	610
6	0	0	0	0	312
7	0	0	0	0	619
8	0	0	0	0	319
9	0	0	0	0	618
10	0	0	0	0	316
11	0	0	0	0	613
12	0	0	0	0	313
13	0	0	0	0	619
14	0	0	0	0	311
15	0	0	0	0	610
0	0	0	0	0	326
1	0	0	0	0	613
2	0	0	0	0	317
3	0	0	0	0	609
4	0	0	0	0	325
5	0	0	0	0	613
6	0	0	0	0	306
7	0	0	0	0	613
8	0	0	0	0	314
9	0	0	0	0	611
10	0	0	0	0	322
11	0	0	0	0	615
12	0	0	0	0	316
13	0	0	0	0	619
14	0	0	0	0	320
15	0	0	0	0	611
0	0	0	0	0	315
1	0	0	0	0	612
2	0	0	0	0	313
3	0	0	0	0	609
4	0	0	0	0	324
5	0	0	0	0	610
6	0	0	0	0	324
7	0	0	0	0	606
8	0	0	0	0	318
9	0	0	0	0	611
10	0	0	0	0	323
11	0	0	0	0	617
12	0	0	0	0	313
13	0	0	0	0	614
14	0	0	0	0	321
15	0	0	0	0	611
0	0	0	0	0	322
1	0	0	0	0	608
2	0	0	0	0	319
3	0	0	0	0	613
4	0	0	0	0	327
5	0	0	0	0	604
6	0	0	0	0	318
7	0	0	0	0	607
8	0	0	0	0	316
9	0	0	0	0	618
10	0	0	0	0	321
11	0	0	0	0	611
12	0	0	0	0	313
13	0	0	0	0	612
14	0	0	0	0	327
15	0	0	0	0	611
0	0	0	0	0	313
1	0	0	0	0	612
2	0	0	0	0	328
3	0	0	0	0	599
4	0	0	0	0	321
5	0	0	0	0	605
6	0	0	0	0	321
7	0	0	0	0	603
8	0	0	0	0	321
9	0	0	0	0	608
10	0	0	0	0	324
11	0	0	0	0	608
12	0	0	0	0	321
13	0	0	0	0	610
14	0	0	0	0	322
15	0	0	0	0	611
0	0	0	0	0	317
1	0	0	0	0	609
2	0	0	0	0	324
3	0	0	0	0	610
4	0	0	0	0	320
5	0	0	0	0	607
6	0	0	0	0	319
7	0	0	0	0	608
8	0	0	0	0	323
9	0	0	0	0	608
10	0	0	0	0	321
11	0	0	0	0	602
12	0	0	0	0	316
13	0	0	0	0	614
14	0	0	0	0	322
15	0	0	0	0	612
0	0	0	0	0	325
1	0	0	0	0	607
2	0	0	0	0	318
3	0	0	0	0	612
4	0	0	0	0	324
5	0	0	0	0	617
6	0	0	0	0	321
7	0	0	0	0	607
8	0	0	0	0	318
9	0	0	0	0	611
10	0	0	0	0	313
11	0	0	0	0	618
12	0	0	0	0	321
13	0	0	0	0	603
14	0	0	0	0	319
15	0	0	0	0	606
0	0	0	0	0	318
1	0	0	0	0	599
2	0	0	0	0	328
3	0	0	0	0	609
4	0	0	0	0	320
5	0	0	0	0	617
6	0	0	0	0	322
7	0	0	0	0	607
8	0	0	0	0	324
9	0	0	0	0	617
10	0	0	0	0	321
11	0	0	0	0	610
12	0	0	0	0	323
13	0	0	0	0	613
14	0	0	0	0	323
15	0	0	0	0	614
0	0	0	0	0	320
1	0	0	0	0	608
2	0	0	0	0	329
3	0	0	0	0	610
4	0	0	0	0	313
5	0	0	0	0	608
6	0	0	0	0	323
7	0	0	0	0	612
8	0	0	0	0	327
9	0	0	0	0	614
10	0	0	0	0	325
11	0	0	0	0	613
12	0	0	0	0	324
13	0	0	0	0	607
14	0	0	0	0	324
15	0	0	0	0	610
0	0	0	0	0	318
1	0	0	0	0	608
2	0	0	0	0	324
3	0	0	0	0	606
4	0	0	0	0	315
5	0	0	0	0	614
6	0	0	0	0	321
7	0	0	0	0	611
8	0	0	0	0	314
9	0	0	0	0	612
10	0	0	0	0	326
11	0	0	0	0	615
12	0	0	0	0	318
13	0	0	0	0	602
14	0	0	0	0	319
15	0	0	0	0	610
0	0	0	0	0	320
1	0	0	0	0	605
2	0	0	0	0	320
3	0	0	0	0	612
4	0	0	0	0	313
5	0	0	0	0	617
6	0	0	0	0	323
7	0	0	0	0	614
8	0	0	0	0	313
9	0	0	0	0	620
10	0	0	0	0	318
11	0	0	0	0	619
12	0	0	0	0	309
13	0	0	0	0	614
14	0	0	0	0	314
15	0	0	0	0	613
0	0	0	0	0	323
1	0	0	0	0	607
2	0	0	0	0	318
3	0	0	0	0	623
4	0	0	0	0	312
5	0	0	0	0	620
6	0	0	0	0	314
7	0	0	0	0	617
8	0	0	0	0	316
9	0	0	0	0	617
10	0	0	0	0	316
11	0	0	0	0	621
12	0	0	0	0	316
13	0	0	0	0	613
14	0	0	0	0	309
15	0	0	0	0	617
0	0	0	0	0	320
1	0	0	0	0	613
2	0	0	0	0	309
3	0	0	0	0	615
4	0	0	0	0	312
5	0	0	0	0	613
6	0	0	0	0	313
7	0	0	0	0	615
8	0	0	0	0	312
9	0	0	0	0	616
10	0	0	0	0	316
11	0	0	0	0	614
12	0	0	0	0	313
13	0	0	0	0	615
14	0	0	0	0	312
15	0	0	0	0	616
0	0	0	0	0	314
1	0	0	0	0	614
2	0	0	0	0	309
3	0	0	0	0	615
4	0	0	0	0	312
5	0	0	0	0	612
6	0	0	0	0	312
7	0	0	0	0	615
8	0	0	0	0	308
9	0	0	0	0	617
10	0	0	0	0	317
11	0	0	0	0	619
12	0	0	0	0	313
13	0	0	0	0	617
14	0	0	0	0	314
15	0	0	0	0	611
0	0	0	0	0	317
1	0	0	0	0	614
2	0	0	0	0	317
3	0	0	0	0	609
4	0	0	0	0	314
5	0	0	0	0	608
6	0	0	0	0	314
7	0	0	0	0	622
8	0	0	0	0	313
9	0	0	0	0	620
10	0	0	0	0	315
11	0	0	0	0	613
12	0	0	0	0	313
13	0	0	0	0	613
14	0	0	0	0	315
15	0	0	0	0	619
0	0	0	0	0	313
1	0	0	0	0	623
2	0	0	0	0	318
3	0	0	0	0	616
4	0	0	0	0	315
5	0	0	0	0	619
6	0	0	0	0	319
7	0	0	0	0	613
8	0	0	0	0	312
9	0	0	0	0	613
10	0	0	0	0	307
11	0	0	0	0	620
12	0	0	0	0	305
13	0	0	0	0	614
14	0	0	0	0	315
15	0	0	0	0	613
0	0	0	0	0	313
1	0	0	0	0	620
2	0	0	0	0	316
3	0	0	0	0	613
4	0	0	0	0	313
5	0	0	0	0	615
6	0	0	0	0	316
7	0	0	0	0	617
8	0	0	0	0	312
9	0	0	0	0	618
10	0	0	0	0	311
11	0	0	0	0	628
12	0	0	0	0	313
13	0	0	0	0	621
14	0	0	0	0	319
15	0	0	0	0	616
0	0	0	0	0	311
1	0	0	0	0	621
2	0	0	0	0	318
3	0	0	0	0	619
4	0	0	0	0	309
5	0	0	0	0	615
6	0	0	0	0	313
7	0	0	0	0	615
8	0	0	0	0	312
9	0	0	0	0	618
10	0	0	0	0	318
11	0	0	0	0	610
12	0	0	0	0	308
13	0	0	0	0	612
14	0	0	0	0	312
15	0	0	0	0	612
0	0	0	0	0	315
1	0	0	0	0	623
2	0	0	0	0	308
3	0	0	0	0	622
4	0	0	0	0	315
5	0	0	0	0	619
6	0	0	0	0	317
7	0	0	0	0	620
8	0	0	0	0	313
9	0	0	0	0	619
10	0	0	0	0	324
11	0	0	0	0	619
12	0	0	0	0	309
13	0	0	0	0	610
14	0	0	0	0	317
15	0	0	0	0	613
0	0	0	0	0	313
1	0	0	0	0	617
2	0	0	0	0	316
3	0	0	0	0	625
4	0	0	0	0	317
5	0	0	0	0	612
6	0	0	0	0	317
7	0	0	0	0	612
8	0	0	0	0	315
9	0	0	0	0	614
10	0	0	0	0	315
11	0	0	0	0	617
12	0	0	0	0	316
13	0	0	0	0	610
14	0	0	0	0	321
15	0	0	0	0	615
0	0	0	0	0	313
1	0	0	0	0	613
2	0	0	0	0	318
3	0	0	0	0	606
4	0	0	0	0	314
5	0	0	0	0	614
6	0	0	0	0	318
7	0	0	0	0	619
8	0	0	0	0	318
9	0	0	0	0	617
10	0	0	0	0	315
11	0	0	0	0	609
12	0	0	0	0	324
13	0	0	0	0	615
14	0	0	0	0	319
15	0	0	0	0	620
0	0	0	0	0	319
1	0	0	0	0	613
2	0	0	0	0	317
3	0	0	0	0	612
4	0	0	0	0	313
5	0	0	0	0	614
6	0	0	0	0	311
7	0	0	0	0	607
8	0	0	0	0	317
9	0	0	0	0	610
10	0	0	0	0	318
11	0	0	0	0	617
12	0	0	0	0	321
13	0	0	0	0	613
14	0	0	0	0	322
15	0	0	0	0	613
0	0	0	0	0	318
1	0	0	0	0	618
2	0	0	0	0	320
3	0	0	0	0	611
4	0	0	0	0	315
5	0	0	0	0	611
6	0	0	0	0	319
7	0	0	0	0	614
8	0	0	0	0	323
9	0	0	0	0	612
10	0	0	0	0	318
11	0	0	0	0	608
12	0	0	0	0	317
13	0	0	0	0	609
14	0	0	0	0	315
15	0	0	0	0	612
0	0	0	0	0	312
1	0	0	0	0	607
2	0	0	0	0	317
3	0	0	0	0	608
4	0	0	0	0	317
5	0	0	0	0	612
6	0	0	0	0	317
7	0	0	0	0	612
8	0	0	0	0	324
9	0	0	0	0	611
10	0	0	0	0	320
11	0	0	0	0	613
12	0	0	0	0	322
13	0	0	0	0	607
14	0	0	0	0	319
15	0	0	0	0	609
0	0	0	0	0	319
1	0	0	0	0	612
2	0	0	0	0	320
3	0	0	0	0	611
4	0	0	0	0	320
5	0	0	0	0	614
6	0	0	0	0	321
7	0	0	0	0	608
8	0	0	0	0	319
9	0	0	0	0	607
10	0	0	0	0	323
11	0	0	0	0	601
12	0	0	0	0	322
13	0	0	0	0	599
14	0	0	0	0	325
15	0	0	0	0	603
0	0	0	0	0	332
1	0	0	0	0	604
2	0	0	0	0	325
3	0	0	0	0	612
4	0	0	0	0	323
5	0	0	0	0	614
6	0	0	0	0	324
7	0	0	0	0	607
8	0	0	0	0	321
9	0	0	0	0	608
10	0	0	0	0	330
11	0	0	0	0	612
12	0	0	0	0	323
13	0	0	0	0	598
14	0	0	0	0	332
15	0	0	0	0	611
0	0	0	0	0	317
1	0	0	0	0	609
2	0	0	0	0	321
3	0	0	0	0	612
4	0	0	0	0	331
5	0	0	0	0	604
6	0	0	0	0	329
7	0	0	0	0	611
8	0	0	0	0	331
9	0	0	0	0	604
10	0	0	0	0	321
11	0	0	0	0	608
12	0	0	0	0	325
13	0	0	0	0	605
14	0	0	0	0	317
15	0	0	0	0	604
0	0	0	0	0	326
1	0	0	0	0	608
2	0	0	0	0	329
3	0	0	0	0	611
4	0	0	0	0	329
5	0	0	0	0	600
6	0	0	0	0	332
7	0	0	0	0	617
8	0	0	0	0	331
9	0	0	0	0	605
10	0	0	0	0	324
11	0	0	0	0	606
12	0	0	0	0	333
13	0	0	0	0	606
14	0	0	0	0	324
15	0	0	0	0	607
0	0	0	0	0	323
1	0	0	0	0	608
2	0	0	0	0	324
3	0	0	0	0	606
4	0	0	0	0	324
5	0	0	0	0	605
6	0	0	0	0	331
7	0	0	0	0	613
8	0	0	0	0	331
9	0	0	0	0	603
10	0	0	0	0	325
11	0	0	0	0	606
12	0	0	0	0	322
13	0	0	0	0	604
14	0	0	0	0	326
15	0	0	0	0	616
0	0	0	0	0	323
1	0	0	0	0	600
2	0	0	0	0	325
3	0	0	0	0	605
4	0	0	0	0	326
5	0	0	0	0	610
6	0	0	0	0	327
7	0	0	0	0	600
8	0	0	0	0	325
9	0	0	0	0	608
10	0	0	0	0	330
11	0	0	0	0	610
12	0	0	0	0	319
13	0	0	0	0	605
14	0	0	0	0	326
15	0	0	0	0	606
0	0	0	0	0	328
1	0	0	0	0	610
2	0	0	0	0	321
3	0	0	0	0	614
4	0	0	0	0	330
5	0	0	0	0	603
6	0	0	0	0	327
7	0	0	0	0	606
8	0	0	0	0	330
9	0	0	0	0	608
10	0	0	0	0	330
11	0	0	0	0	603
12	0	0	0	0	326
13	0	0	0	0	603
14	0	0	0	0	330
15	0	0	0	0	604
0	0	0	0	0	321
1	0	0	0	0	601
2	0	0	0	0	328
3	0	0	0	0	604
4	0	0	0	0	324
5	0	0	0	0	601
6	0	0	0	0	332
7	0	0	0	0	608
8	0	0	0	0	327
9	0	0	0	0	597
10	0	0	0	0	329
11	0	0	0	0	610
12	0	0	0	0	330
13	0	0	0	0	606
14	0	0	0	0	329
15	0	0	0	0	605
0	0	0	0	0	328
1	0	0	0	0	601
2	0	0	0	0	329
3	0	0	0	0	607
4	0	0	0	0	329
5	0	0	0	0	607
6	0	0	0	0	332
7	0	0	0	0	600
8	0	0	0	0	329
9	0	0	0	0	607
10	0	0	0	0	330
11	0	0	0	0	613
12	0	0	0	0	331
13	0	0	0	0	601
14	0	0	0	0	328
15	0	0	0	0	604
0	0	0	0	0	327
1	0	0	0	0	601
2	0	0	0	0	335
3	0	0	0	0	608
4	0	0	0	0	324
5	0	0	0	0	601
6	0	0	0	0	336
7	0	0	0	0	601
8	0	0	0	0	331
9	0	0	0	0	604
10	0	0	0	0	329
11	0	0	0	0	604
12	0	0	0	0	327
13	0	0	0	0	608
14	0	0	0	0	330
15	0	0	0	0	599
0	0	0	0	0	325
1	0	0	0	0	606
2	0	0	0	0	330
3	0	0	0	0	602
4	0	0	0	0	317
5	0	0	0	0	598
6	0	0	0	0	331
7	0	0	0	0	600
8	0	0	0	0	333
9	0	0	0	0	599
10	0	0	0	0	330
11	0	0	0	0	605
12	0	0	0	0	319
13	0	0	0	0	607
14	0	0	0	0	331
15	0	0	0	0	611
0	0	0	0	0	326
1	0	0	0	0	599
2	0	0	0	0	330
3	0	0	0	0	603
4	0	0	0	0	328
5	0	0	0	0	597
6	0	0	0	0	332
7	0	0	0	0	606
8	0	0	0	0	321
9	0	0	0	0	608
10	0	0	0	0	324
11	0	0	0	0	599
12	0	0	0	0	333
13	0	0	0	0	595
14	0	0	0	0	325
15	0	0	0	0	605
0	0	0	0	0	324
1	0	0	0	0	604
2	0	0	0	0	332
3	0	0	0	0	610
4	0	0	0	0	328
5	0	0	0	0	600
6	0	0	0	0	328
7	0	0	0	0	608
8	0	0	0	0	324
9	0	0	0	0	599
10	0	0	0	0	333
11	0	0	0	0	602
12	0	0	0	0	325
13	0	0	0	0	604
14	0	0	0	0	335
15	0	0	0	0	600
0	0	0	0	0	333
1	0	0	0	0	601
2	0	0	0	0	324
3	0	0	0	0	603
4	0	0	0	0	325
5	0	0	0	0	600
6	0	0	0	0	328
7	0	0	0	0	608
8	0	0	0	0	327
9	0	0	0	0	598
10	0	0	0	0	330
11	0	0	0	0	599
12	0	0	0	0	328
13	0	0	0	0	604
14	0	0	0	0	332
15	0	0	0	0	608
0	0	0	0	0	329
1	0	0	0	0	603
2	0	0	0	0	334
3	0	0	0	0	605
4	0	0	0	0	327
5	0	0	0	0	598
6	0	0	0	0	329
7	0	0	0	0	598
8	0	0	0	0	326
9	0	0	0	0	610
10	0	0	0	0	332
11	0	0	0	0	602
12	0	0	0	0	330
13	0	0	0	0	609
14	0	0	0	0	332
15	0	0	0	0	603
0	0	0	0	0	334
1	0	0	0	0	605
2	0	0	0	0	328
3	0	0	0	0	598
4	0	0	0	0	330
5	0	0	0	0	605
6	0	0	0	0	325
7	0	0	0	0	603
8	0	0	0	0	329
9	0	0	0	0	605
10	0	0	0	0	333
11	0	0	0	0	601
12	0	0	0	0	328
13	0	0	0	0	610
14	0	0	0	0	329
15	0	0	0	0	603
0	0	0	0	0	333
1	0	0	0	0	611
2	0	0	0	0	334
3	0	0	0	0	596
4	0	0	0	0	325
5	0	0	0	0	607
6	0	0	0	0	334
7	0	0	0	0	605
8	0	0	0	0	327
9	0	0	0	0	595
10	0	0	0	0	325
11	0	0	0	0	601
12	0	0	0	0	331
13	0	0	0	0	600
14	0	0	0	0	326
15	0	0	0	0	605
0	0	0	0	0	327
1	0	0	0	0	596
2	0	0	0	0	329
3	0	0	0	0	598
4	0	0	0	0	329
5	0	0	0	0	599
6	0	0	0	0	329
7	0	0	0	0	602
8	0	0	0	0	331
9	0	0	0	0	601
10	0	0	0	0	339
11	0	0	0	0	605
12	0	0	0	0	333
13	0	0	0	0	602
14	0	0	0	0	333
15	0	0	0	0	601
0	0	0	0	0	322
1	0	0	0	0	601
2	0	0	0	0	332
3	0	0	0	0	603
4	0	0	0	0	332
5	0	0	0	0	607
6	0	0	0	0	331
7	0	0	0	0	600
8	0	0	0	0	333
9	0	0	0	0	595
10	0	0	0	0	332
11	0	0	0	0	603
12	0	0	0	0	331
13	0	0	0	0	603
14	0	0	0	0	328
15	0	0	0	0	599
0	0	0	0	0	336
1	0	0	0	0	604
2	0	0	0	0	337
3	0	0	0	0	607
4	0	0	0	0	337
5	0	0	0	0	604
6	0	0	0	0	331
7	0	0	0	0	603
8	0	0	0	0	336
9	0	0	0	0	602
10	0	0	0	0	335
11	0	0	0	0	604
12	0	0	0	0	332
13	0	0	0	0	601
14	0	0	0	0	332
15	0	0	0	0	603
0	0	0	0	0	333
1	0	0	0	0	608
2	0	0	0	0	332
3	0	0	0	0	603
4	0	0	0	0	336
5	0	0	0	0	602
6	0	0	0	0	334
7	0	0	0	0	597
8	0	0	0	0	333
9	0	0	0	0	603
10	0	0	0	0	332
11	0	0	0	0	604
12	0	0	0	0	337
13	0	0	0	0	608
14	0	0	0	0	341
15	0	0	0	0	603
0	0	0	0	0	328
1	0	0	0	0	605
2	0	0	0	0	334
3	0	0	0	0	597
4	0	0	0	0	334
5	0	0	0	0	606
6	0	0	0	0	336
7	0	0	0	0	607
8	0	0	0	0	340
9	0	0	0	0	596
10	0	0	0	0	334
11	0	0	0	0	600
12	0	0	0	0	336
13	0	0	0	0	604
14	0	0	0	0	344
15	0	0	0	0	597
0	0	0	0	0	329
1	0	0	0	0	601
2	0	0	0	0	337
3	0	0	0	0	605
4	0	0	0	0	329
5	0	0	0	0	604
6	0	0	0	0	331
7	0	0	0	0	606
8	0	0	0	0	334
9	0	0	0	0	611
10	0	0	0	0	342
11	0	0	0	0	602
12	0	0	0	0	339
13	0	0	0	0	599
14	0	0	0	0	340
15	0	0	0	0	600
0	0	0	0	0	336
1	0	0	0	0	597
2	0	0	0	0	336
3	0	0	0	0	599
4	0	0	0	0	329
5	0	0	0	0	600
6	0	0	0	0	336
7	0	0	0	0	603
8	0	0	0	0	347
9	0	0	0	0	595
10	0	0	0	0	339
11	0	0	0	0	599
12	0	0	0	0	336
13	0	0	0	0	605
14	0	0	0	0	342
15	0	0	0	0	601
0	0	0	0	0	336
1	0	0	0	0	597
2	0	0	0	0	338
3	0	0	0	0	600
4	0	0	0	0	339
5	0	0	0	0	600
6	0	0	0	0	337
7	0	0	0	0	600
8	0	0	0	0	343
9	0	0	0	0	600
10	0	0	0	0	335
11	0	0	0	0	598
12	0	0	0	0	342
13	0	0	0	0	599
14	0	0	0	0	340
15	0	0	0	0	593
0	0	0	0	0	339
1	0	0	0	0	591
2	0	0	0	0	337
3	0	0	0	0	604
4	0	0	0	0	343
5	0	0	0	0	600
6	0	0	0	0	339
7	0	0	0	0	596
8	0	0	0	0	338
9	0	0	0	0	595
10	0	0	0	0	346
11	0	0	0	0	598
12	0	0	0	0	345
13	0	0	0	0	601
14	0	0	0	0	339
15	0	0	0	0	594
0	0	0	0	0	349
1	0	0	0	0	603
2	0	0	0	0	340
3	0	0	0	0	592
4	0	0	0	0	338
5	0	0	0	0	596
6	0	0	0	0	341
7	0	0	0	0	601
8	0	0	0	0	344
9	0	0	0	0	596
10	0	0	0	0	341
11	0	0	0	0	594
12	0	0	0	0	341
13	0	0	0	0	593
14	0	0	0	0	344
15	0	0	0	0	597
0	0	0	0	0	339
1	0	0	0	0	596
2	0	0	0	0	347
3	0	0	0	0	594
4	0	0	0	0	338
5	0	0	0	0	598
6	0	0	0	0	347
7	0	0	0	0	598
8	0	0	0	0	341
9	0	0	0	0	601
10	0	0	0	0	338
11	0	0	0	0	595
12	0	0	0	0	340
13	0	0	0	0	598
14	0	0	0	0	336
15	0	0	0	0	593
0	0	0	0	0	342
1	0	0	0	0	602
2	0	0	0	0	347
3	0	0	0	0	602
4	0	0	0	0	345
5	0	0	0	0	593
6	0	0	0	0	348
7	0	0	0	0	600
8	0	0	0	0	341
9	0	0	0	0	599
10	0	0	0	0	352
11	0	0	0	0	592
12	0	0	0	0	340
13	0	0	0	0	594
14	0	0	0	0	346
15	0	0	0	0	591
0	0	0	0	0	346
1	0	0	0	0	595
2	0	0	0	0	344
3	0	0	0	0	590
4	0	0	0	0	344
5	0	0	0	0	598
6	0	0	0	0	341
7	0	0	0	0	596
8	0	0	0	0	345
9	0	0	0	0	593
10	0	0	0	0	348
11	0	0	0	0	603
12	0	0	0	0	342
13	0	0	0	0	593
14	0	0	0	0	348
15	0	0	0	0	601
0	0	0	0	0	338
1	0	0	0	0	595
2	0	0	0	0	341
3	0	0	0	0	598
4	0	0	0	0	349
5	0	0	0	0	589
6	0	0	0	0	343
7	0	0	0	0	593
8	0	0	0	0	345
9	0	0	0	0	590
10	0	0	0	0	352
11	0	0	0	0	596
12	0	0	0	0	345
13	0	0	0	0	601
14	0	0	0	0	345
15	0	0	0	0	585
0	0	0	0	0	344
1	0	0	0	0	598
2	0	0	0	0	349
3	0	0	0	0	594
4	0	0	0	0	352
5	0	0	0	0	593
6	0	0	0	0	349
7	0	0	0	0	596
8	0	0	0	0	342
9	0	0	0	0	596
10	0	0	0	0	350
11	0	0	0	0	595
12	0	0	0	0	341
13	0	0	0	0	596
14	0	0	0	0	350
15	0	0	0	0	597
0	0	0	0	0	343
1	0	0	0	0	597
2	0	0	0	0	342
3	0	0	0	0	595
4	0	0	0	0	349
5	0	0	0	0	585
6	0	0	0	0	348
7	0	0	0	0	600
8	0	0	0	0	348
9	0	0	0	0	590
10	0	0	0	0	348
11	0	0	0	0	591
12	0	0	0	0	341
13	0	0	0	0	592
14	0	0	0	0	353
15	0	0	0	0	588
0	0	0	0	0	346
1	0	0	0	0	590
2	0	0	0	0	347
3	0	0	0	0	597
4	0	0	0	0	344
5	0	0	0	0	589
6	0	0	0	0	343
7	0	0	0	0	594
8	0	0	0	0	343
9	0	0	0	0	595
10	0	0	0	0	344
11	0	0	0	0	591
12	0	0	0	0	343
13	0	0	0	0	589
14	0	0	0	0	343
15	0	0	0	0	588
0	0	0	0	0	345
1	0	0	0	0	595
2	0	0	0	0	347
3	0	0	0	0	596
4	0	0	0	0	344
5	0	0	0	0	591
6	0	0	0	0	346
7	0	0	0	0	600
8	0	0	0	0	352
9	0	0	0	0	590
10	0	0	0	0	349
11	0	0	0	0	597
12	0	0	0	0	344
13	0	0	0	0	594
14	0	0	0	0	343
15	0	0	0	0	594
0	0	0	0	0	347
1	0	0	0	0	592
2	0	0	0	0	345
3	0	0	0	0	584
4	0	0	0	0	355
5	0	0	0	0	593
6	0	0	0	0	346
7	0	0	0	0	598
8	0	0	0	0	344
9	0	0	0	0	593
10	0	0	0	0	350
11	0	0	0	0	590
12	0	0	0	0	344
13	0	0	0	0	598
14	0	0	0	0	344
15	0	0	0	0	592
0	0	0	0	0	338
1	0	0	0	0	595
2	0	0	0	0	347
3	0	0	0	0	592
4	0	0	0	0	345
5	0	0	0	0	591
6	0	0	0	0	346
7	0	0	0	0	596
8	0	0	0	0	349
9	0	0	0	0	593
10	0	0	0	0	350
11	0	0	0	0	597
12	0	0	0	0	340
13	0	0	0	0	599
14	0	0	0	0	334
15	0	0	0	0	595
0	0	0	0	0	348
1	0	0	0	0	589
2	0	0	0	0	351
3	0	0	0	0	592
4	0	0	0	0	354
5	0	0	0	0	601
6	0	0	0	0	346
7	0	0	0	0	589
8	0	0	0	0	344
9	0	0	0	0	594
10	0	0	0	0	346
11	0	0	0	0	589
12	0	0	0	0	345
13	0	0	0	0	590
14	0	0	0	0	350
15	0	0	0	0	592
0	0	0	0	0	352
1	0	0	0	0	592
2	0	0	0	0	350
3	0	0	0	0	597
4	0	0	0	0	348
5	0	0	0	0	600
6	0	0	0	0	345
7	0	0	0	0	592
8	0	0	0	0	340
9	0	0	0	0	595
10	0	0	0	0	349
11	0	0	0	0	591
12	0	0	0	0	336
13	0	0	0	0	598
14	0	0	0	0	340
15	0	0	0	0	596
0	0	0	0	0	344
1	0	0	0	0	597
2	0	0	0	0	345
3	0	0	0	0	598
4	0	0	0	0	344
5	0	0	0	0	593
6	0	0	0	0	342
7	0	0	0	0	599
8	0	0	0	0	341
9	0	0	0	0	600
10	0	0	0	0	344
11	0	0	0	0	604
12	0	0	0	0	343
13	0	0	0	0	601
14	0	0	0	0	341
15	0	0	0	0	596
0	0	0	0	0	340
1	0	0	0	0	603
2	0	0	0	0	335
3	0	0	0	0	599
4	0	0	0	0	345
5	0	0	0	0	593
6	0	0	0	0	346
7	0	0	0	0	599
8	0	0	0	0	339
9	0	0	0	0	595
10	0	0	0	0	339
11	0	0	0	0	605
12	0	0	0	0	334
13	0	0	0	0	598
14	0	0	0	0	339
15	0	0	0	0	597
0	0	0	0	0	339
1	0	0	0	0	602
2	0	0	0	0	340
3	0	0	0	0	608
4	0	0	0	0	334
5	0	0	0	0	601
6	0	0	0	0	342
7	0	0	0	0	599
8	0	0	0	0	340
9	0	0	0	0	597
10	0	0	0	0	343
11	0	0	0	0	597
12	0	0	0	0	338
13	0	0	0	0	601
14	0	0	0	0	335
15	0	0	0	0	594
0	0	0	0	0	334
1	0	0	0	0	595
2	0	0	0	0	341
3	0	0	0	0	597
4	0	0	0	0	340
5	0	0	0	0	597
6	0	0	0	0	337
7	0	0	0	0	601
8	0	0	0	0	341
9	0	0	0	0	593
10	0	0	0	0	339
11	0	0	0	0	600
12	0	0	0	0	338
13	0	0	0	0	603
14	0	0	0	0	347
15	0	0	0	0	600
0	0	0	0	0	337
1	0	0	0	0	600
2	0	0	0	0	346
3	0	0	0	0	598
4	0	0	0	0	348
5	0	0	0	0	601
6	0	0	0	0	339
7	0	0	0	0	599
8	0	0	0	0	345
9	0	0	0	0	599
10	0	0	0	0	334
11	0	0	0	0	593
12	0	0	0	0	338
13	0	0	0	0	595
14	0	0	0	0	342
15	0	0	0	0	599
0	0	0	0	0	343
1	0	0	0	0	589
2	0	0	0	0	348
3	0	0	0	0	592
4	0	0	0	0	348
5	0	0	0	0	597
6	0	0	0	0	352
7	0	0	0	0	599
8	0	0	0	0	344
9	0	0	0	0	602
10	0	0	0	0	335
11	0	0	0	0	597
12	0	0	0	0	349
13	0	0	0	0	592
14	0	0	0	0	345
15	0	0	0	0	594
0	0	0	0	0	340
1	0	0	0	0	598
2	0	0	0	0	342
3	0	0	0	0	600
4	0	0	0	0	341
5	0	0	0	0	597
6	0	0	0	0	345
7	0	0	0	0	598
8	0	0	0	0	339
9	0	0	0	0	598
10	0	0	0	0	340
11	0	0	0	0	597
12	0	0	0	0	343
13	0	0	0	0	604
14	0	0	0	0	334
15	0	0	0	0	601
0	0	0	0	0	330
1	0	0	0	0	603
2	0	0	0	0	334
3	0	0	0	0	605
4	0	0	0	0	327
5	0	0	0	0	598
6	0	0	0	0	334
7	0	0	0	0	608
8	0	0	0	0	332
9	0	0	0	0	603
10	0	0	0	0	337
11	0	0	0	0	611
12	0	0	0	0	333
13	0	0	0	0	597
14	0	0	0	0	334
15	0	0	0	0	602
0	0	0	0	0	332
1	0	0	0	0	603
2	0	0	0	0	332
3	0	0	0	0	604
4	0	0	0	0	332
5	0	0	0	0	600
6	0	0	0	0	336
7	0	0	0	0	606
8	0	0	0	0	326
9	0	0	0	0	607
10	0	0	0	0	337
11	0	0	0	0	603
12	0	0	0	0	333
13	0	0	0	0	609
14	0	0	0	0	336
15	0	0	0	0	606
0	0	0	0	0	336
1	0	0	0	0	597
2	0	0	0	0	336
3	0	0	0	0	598
4	0	0	0	0	331
5	0	0	0	0	604
6	0	0	0	0	336
7	0	0	0	0	608
8	0	0	0	0	332
9	0	0	0	0	596
10	0	0	0	0	330
11	0	0	0	0	602
12	0	0	0	0	331
13	0	0	0	0	607
14	0	0	0	0	337
15	0	0	0	0	604
0	0	0	0	0	325
1	0	0	0	0	605
2	0	0	0	0	336
3	0	0	0	0	600
4	0	0	0	0	340
5	0	0	0	0	602
6	0	0	0	0	334
7	0	0	0	0	599
8	0	0	0	0	331
9	0	0	0	0	604
10	0	0	0	0	332
11	0	0	0	0	606
12	0	0	0	0	330
13	0	0	0	0	606
14	0	0	0	0	334
15	0	0	0	0	604
0	0	0	0	0	336
1	0	0	0	0	597
2	0	0	0	0	330
3	0	0	0	0	612
4	0	0	0	0	334
5	0	0	0	0	601
6	0	0	0	0	333
7	0	0	0	0	605
8	0	0	0	0	336
9	0	0	0	0	600
10	0	0	0	0	322
11	0	0	0	0	609
12	0	0	0	0	322
13	0	0	0	0	603
14	0	0	0	0	329
15	0	0	0	0	600
0	0	0	0	0	330
1	0	0	0	0	613
2	0	0	0	0	336
3	0	0	0	0	602
4	0	0	0	0	333
5	0	0	0	0	601
6	0	0	0	0	324
7	0	0	0	0	602
8	0	0	0	0	331
9	0	0	0	0	608
10	0	0	0	0	337
11	0	0	0	0	607
12	0	0	0	0	330
13	0	0	0	0	604
14	0	0	0	0	328
15	0	0	0	0	602
0	0	0	0	0	327
1	0	0	0	0	603
2	0	0	0	0	329
3	0	0	0	0	605
4	0	0	0	0	329
5	0	0	0	0	606
6	0	0	0	0	326
7	0	0	0	0	600
8	0	0	0	0	330
9	0	0	0	0	608
10	0	0	0	0	334
11	0	0	0	0	601
12	0	0	0	0	333
13	0	0	0	0	600
14	0	0	0	0	332
15	0	0	0	0	606
0	0	0	0	0	331
1	0	0	0	0	600
2	0	0	0	0	332
3	0	0	0	0	611
4	0	0	0	0	323
5	0	0	0	0	611
6	0	0	0	0	331
7	0	0	0	0	611
8	0	0	0	0	333
9	0	0	0	0	604
10	0	0	0	0	328
11	0	0	0	0	606
12	0	0	0	0	327
13	0	0	0	0	608
14	0	0	0	0	335
15	0	0	0	0	604
0	0	0	0	0	326
1	0	0	0	0	602
2	0	0	0	0	331
3	0	0	0	0	603
4	0	0	0	0	333
5	0	0	0	0	604
6	0	0	0	0	336
7	0	0	0	0	604
8	0	0	0	0	335
9	0	0	0	0	611
10	0	0	0	0	326
11	0	0	0	0	611
12	0	0	0	0	336
13	0	0	0	0	607
14	0	0	0	0	333
15	0	0	0	0	603
0	0	0	0	0	335
1	0	0	0	0	610
2	0	0	0	0	333
3	0	0	0	0	608
4	0	0	0	0	335
5	0	0	0	0	604
6	0	0	0	0	322
7	0	0	0	0	602
8	0	0	0	0	332
9	0	0	0	0	611
10	0	0	0	0	330
11	0	0	0	0	610
12	0	0	0	0	327
13	0	0	0	0	604
14	0	0	0	0	331
15	0	0	0	0	602
0	0	0	0	0	329
1	0	0	0	0	605
2	0	0	0	0	333
3	0	0	0	0	610
4	0	0	0	0	328
5	0	0	0	0	603
6	0	0	0	0	326
7	0	0	0	0	612
8	0	0	0	0	334
9	0	0	0	0	609
10	0	0	0	0	329
11	0	0	0	0	601
12	0	0	0	0	332
13	0	0	0	0	607
14	0	0	0	0	330
15	0	0	0	0	611
0	0	0	0	0	331
1	0	0	0	0	607
2	0	0	0	0	332
3	0	0	0	0	605
4	0	0	0	0	330
5	0	0	0	0	606
6	0	0	0	0	328
7	0	0	0	0	607
8	0	0	0	0	332
9	0	0	0	0	616
10	0	0	0	0	334
11	0	0	0	0	602
12	0	0	0	0	324
13	0	0	0	0	608
14	0	0	0	0	331
15	0	0	0	0	604
0	0	0	0	0	332
1	0	0	0	0	603
2	0	0	0	0	331
3	0	0	0	0	606
4	0	0	0	0	324
5	0	0	0	0	605
6	0	0	0	0	332
7	0	0	0	0	611
8	0	0	0	0	323
9	0	0	0	0	610
10	0	0	0	0	330
11	0	0	0	0	598
12	0	0	0	0	328
13	0	0	0	0	608
14	0	0	0	0	328
15	0	0	0	0	607
0	0	0	0	0	329
1	0	0	0	0	604
2	0	0	0	0	326
3	0	0	0	0	603
4	0	0	0	0	337
5	0	0	0	0	604
6	0	0	0	0	340
7	0	0	0	0	598
8	0	0	0	0	334
9	0	0	0	0	603
10	0	0	0	0	332
11	0	0	0	0	606
12	0	0	0	0	333
13	0	0	0	0	609
14	0	0	0	0	336
15	0	0	0	0	603
0	0	0	0	0	332
1	0	0	0	0	603
2	0	0	0	0	328
3	0	0	0	0	602
4	0	0	0	0	322
5	0	0	0	0	604
6	0	0	0	0	326
7	0	0	0	0	606
8	0	0	0	0	332
9	0	0	0	0	605
10	0	0	0	0	328
11	0	0	0	0	610
12	0	0	0	0	335
13	0	0	0	0	607
14	0	0	0	0	331
15	0	0	0	0	605
0	0	0	0	0	335
1	0	0	0	0	610
2	0	0	0	0	336
3	0	0	0	0	604
4	0	0	0	0	328
5	0	0	0	0	604
6	0	0	0	0	329
7	0	0	0	0	608
8	0	0	0	0	340
9	0	0	0	0	608
10	0	0	0	0	333
11	0	0	0	0	604
12	0	0	0	0	329
13	0	0	0	0	611
14	0	0	0	0	328
15	0	0	0	0	603
0	0	0	0	0	333
1	0	0	0	0	604
2	0	0	0	0	333
3	0	0	0	0	604
4	0	0	0	0	328
5	0	0	0	0	611
6	0	0	0	0	329
7	0	0	0	0	601
8	0	0	0	0	330
9	0	0	0	0	602
10	0	0	0	0	332
11	0	0	0	0	608
12	0	0	0	0	336
13	0	0	0	0	609
14	0	0	0	0	341
15	0	0	0	0	604
0	0	0	0	0	337
1	0	0	0	0	608
2	0	0	0	0	331
3	0	0	0	0	605
4	0	0	0	0	331
5	0	0	0	0	602
6	0	0	0	0	336
7	0	0	0	0	597
8	0	0	0	0	331
9	0	0	0	0	601
10	0	0	0	0	335
11	0	0	0	0	601
12	0	0	0	0	333
13	0	0	0	0	600
14	0	0	0	0	330
15	0	0	0	0	603
0	0	0	0	0	329
1	0	0	0	0	600
2	0	0	0	0	337
3	0	0	0	0	606
4	0	0	0	0	332
5	0	0	0	0	604
6	0	0	0	0	332
7	0	0	0	0	597
8	0	0	0	0	333
9	0	0	0	0	604
10	0	0	0	0	333
11	0	0	0	0	605
12	0	0	0	0	334
13	0	0	0	0	605
14	0	0	0	0	334
15	0	0	0	0	601
0	0	0	0	0	333
1	0	0	0	0	603
2	0	0	0	0	337
3	0	0	0	0	608
4	0	0	0	0	332
5	0	0	0	0	597
6	0	0	0	0	329
7	0	0	0	0	607
8	0	0	0	0	333
9	0	0	0	0	601
10	0	0	0	0	331
11	0	0	0	0	609
12	0	0	0	0	333
13	0	0	0	0	609
14	0	0	0	0	336
15	0	0	0	0	599
0	0	0	0	0	334
1	0	0	0	0	600
2	0	0	0	0	339
3	0	0	0	0	600
4	0	0	0	0	332
5	0	0	0	0	602
6	0	0	0	0	335
7	0	0	0	0	603
8	0	0	0	0	334
9	0	0	0	0	604
10	0	0	0	0	335
11	0	0	0	0	607
12	0	0	0	0	331
13	0	0	0	0	600
14	0	0	0	0	337
15	0	0	0	0	602
0	0	0	0	0	332
1	0	0	0	0	603
2	0	0	0	0	333
3	0	0	0	0	604
4	0	0	0	0	333
5	0	0	0	0	602
6	0	0	0	0	329
7	0	0	0	0	603
8	0	0	0	0	329
9	0	0	0	0	601
10	0	0	0	0	332
11	0	0	0	0	608
12	0	0	0	0	333
13	0	0	0	0	609
14	0	0	0	0	334
15	0	0	0	0	607
0	0	0	0	0	336
1	0	0	0	0	597
2	0	0	0	0	341
3	0	0	0	0	601
4	0	0	0	0	339
5	0	0	0	0	607
6	0	0	0	0	333
7	0	0	0	0	601
8	0	0	0	0	337
9	0	0	0	0	602
10	0	0	0	0	336
11	0	0	0	0	601
12	0	0	0	0	333
13	0	0	0	0	600
14	0	0	0	0	336
15	0	0	0	0	605
0	0	0	0	0	337
1	0	0	0	0	607
2	0	0	0	0	336
3	0	0	0	0	599
4	0	0	0	0	333
5	0	0	0	0	604
6	0	0	0	0	337
7	0	0	0	0	602
8	0	0	0	0	334
9	0	0	0	0	595
10	0	0	0	0	338
11	0	0	0	0	598
12	0	0	0	0	333
13	0	0	0	0	603
14	0	0	0	0	338
15	0	0	0	0	605
0	0	0	0	0	329
1	0	0	0	0	594
2	0	0	0	0	333
3	0	0	0	0	600
4	0	0	0	0	331
5	0	0	0	0	601
6	0	0	0	0	334
7	0	0	0	0	597
8	0	0	0	0	336
9	0	0	0	0	604
10	0	0	0	0	334
11	0	0	0	0	607
12	0	0	0	0	332
13	0	0	0	0	597
14	0	0	0	0	338
15	0	0	0	0	597
0	0	0	0	0	336
1	0	0	0	0	599
2	0	0	0	0	332
3	0	0	0	0	606
4	0	0	0	0	325
5	0	0	0	0	600
6	0	0	0	0	336
7	0	0	0	0	602
8	0	0	0	0	334
9	0	0	0	0	605
10	0	0	0	0	332
11	0	0	0	0	597
12	0	0	0	0	341
13	0	0	0	0	596
14	0	0	0	0	333
15	0	0	0	0	604
0	0	0	0	0	338
1	0	0	0	0	596
2	0	0	0	0	340
3	0	0	0	0	597
4	0	0	0	0	337
5	0	0	0	0	607
6	0	0	0	0	337
7	0	0	0	0	598
8	0	0	0	0	336
9	0	0	0	0	597
10	0	0	0	0	334
11	0	0	0	0	604
12	0	0	0	0	337
13	0	0	0	0	598
14	0	0	0	0	341
15	0	0	0	0	598
0	0	0	0	0	331
1	0	0	0	0	605
2	0	0	0	0	336
3	0	0	0	0	601
4	0	0	0	0	336
5	0	0	0	0	604
6	0	0	0	0	341
7	0	0	0	0	601
8	0	0	0	0	335
9	0	0	0	0	604
10	0	0	0	0	333
11	0	0	0	0	605
12	0	0	0	0	332
13	0	0	0	0	596
14	0	0	0	0	342
15	0	0	0	0	599
0	0	0	0	0	340
1	0	0	0	0	607
2	0	0	0	0	330
3	0	0	0	0	599
4	0	0	0	0	334
5	0	0	0	0	606
6	0	0	0	0	333
7	0	0	0	0	607
8	0	0	0	0	336
9	0	0	0	0	606
10	0	0	0	0	339
11	0	0	0	0	600
12	0	0	0	0	336
13	0	0	0	0	601
14	0	0	0	0	335
15	0	0	0	0	609
0	0	0	0	0	332
1	0	0	0	0	601
2	0	0	0	0	335
3	0	0	0	0	601
4	0	0	0	0	334
5	0	0	0	0	601
6	0	0	0	0	333
7	0	0	0	0	601
8	0	0	0	0	328
9	0	0	0	0	607
10	0	0	0	0	331
11	0	0	0	0	608
12	0	0	0	0	333
13	0	0	0	0	606
14	0	0	0	0	332
15	0	0	0	0	608
0	0	0	0	0	327
1	0	0	0	0	598
2	0	0	0	0	328
3	0	0	0	0	605
4	0	0	0	0	340
5	0	0	0	0	601
6	0	0	0	0	335
7	0	0	0	0	609
8	0	0	0	0	337
9	0	0	0	0	601
10	0	0	0	0	334
11	0	0	0	0	605
12	0	0	0	0	336
13	0	0	0	0	604
14	0	0	0	0	332
15	0	0	0	0	608
0	0	0	0	0	333
1	0	0	0	0	605
2	0	0	0	0	332
3	0	0	0	0	612
4	0	0	0	0	336
5	0	0	0	0	607
6	0	0	0	0	336
7	0	0	0	0	611
8	0	0	0	0	335
9	0	0	0	0	611
10	0	0	0	0	330
11	0	0	0	0	603
12	0	0	0	0	328
13	0	0	0	0	611
14	0	0	0	0	331
15	0	0	0	0	602
0	0	0	0	0	332
1	0	0	0	0	609
2	0	0	0	0	331
3	0	0	0	0	602
4	0	0	0	0	328
5	0	0	0	0	611
6	0	0	0	0	331
7	0	0	0	0	607
8	0	0	0	0	331
9	0	0	0	0	607
10	0	0	0	0	326
11	0	0	0	0	610
12	0	0	0	0	327
13	0	0	0	0	603
14	0	0	0	0	334
15	0	0	0	0	602
0	0	0	0	0	330
1	0	0	0	0	605
2	0	0	0	0	333
3	0	0	0	0	608
4	0	0	0	0	337
5	0	0	0	0	613
6	0	0	0	0	329
7	0	0	0	0	609
8	0	0	0	0	334
9	0	0	0	0	609
10	0	0	0	0	336
11	0	0	0	0	605
12	0	0	0	0	326
13	0	0	0	0	609
14	0	0	0	0	323
15	0	0	0	0	605
0	0	0	0	0	332
1	0	0	0	0	605
2	0	0	0	0	332
3	0	0	0	0	601
4	0	0	0	0	326
5	0	0	0	0	603
6	0	0	0	0	322
7	0	0	0	0	604
8	0	0	0	0	325
9	0	0	0	0	606
10	0	0	0	0	331
11	0	0	0	0	605
12	0	0	0	0	340
13	0	0	0	0	600
14	0	0	0	0	331
15	0	0	0	0	610
0	0	0	0	0	326
1	0	0	0	0	605
2	0	0	0	0	333
3	0	0	0	0	603
4	0	0	0	0	327
5	0	0	0	0	611
6	0	0	0	0	335
7	0	0	0	0	604
8	0	0	0	0	326
9	0	0	0	0	608
10	0	0	0	0	333
11	0	0	0	0	605
12	0	0	0	0	323
13	0	0	0	0	612
14	0	0	0	0	333
15	0	0	0	0	612
0	0	0	0	0	323
1	0	0	0	0	608
2	0	0	0	0	325
3	0	0	0	0	604
4	0	0	0	0	332
5	0	0	0	0	608
6	0	0	0	0	335
7	0	0	0	0	604
8	0	0	0	0	327
9	0	0	0	0	606
10	0	0	0	0	326
11	0	0	0	0	604
12	0	0	0	0	324
13	0	0	0	0	609
14	0	0	0	0	326
15	0	0	0	0	614
0	0	0	0	0	332
1	0	0	0	0	601
2	0	0	0	0	324
3	0	0	0	0	608
4	0	0	0	0	335
5	0	0	0	0	601
6	0	0	0	0	328
7	0	0	0	0	610
8	0	0	0	0	323
9	0	0	0	0	603
10	0	0	0	0	323
11	0	0	0	0	613
12	0	0	0	0	332
13	0	0	0	0	602
14	0	0	0	0	332
15	0	0	0	0	612
0	0	0	0	0	324
1	0	0	0	0	612
2	0	0	0	0	335
3	0	0	0	0	607
4	0	0	0	0	334
5	0	0	0	0	601
6	0	0	0	0	324
7	0	0	0	0	611
8	0	0	0	0	318
9	0	0	0	0	608
10	0	0	0	0	332
11	0	0	0	0	611
12	0	0	0	0	327
13	0	0	0	0	608
14	0	0	0	0	320
15	0	0	0	0	610
0	0	0	0	0	326
1	0	0	0	0	611
2	0	0	0	0	333
3	0	0	0	0	612
4	0	0	0	0	329
5	0	0	0	0	613
6	0	0	0	0	320
7	0	0	0	0	612
8	0	0	0	0	326
9	0	0	0	0	606
10	0	0	0	0	319
11	0	0	0	0	612
12	0	0	0	0	328
13	0	0	0	0	608
14	0	0	0	0	319
15	0	0	0	0	606
0	0	0	0	0	317
1	0	0	0	0	608
2	0	0	0	0	326
3	0	0	0	0	605
4	0	0	0	0	328
5	0	0	0	0	603
6	0	0	0	0	323
7	0	0	0	0	610
8	0	0	0	0	330
9	0	0	0	0	612
10	0	0	0	0	326
11	0	0	0	0	606
12	0	0	0	0	320
13	0	0	0	0	617
14	0	0	0	0	322
15	0	0	0	0	610
0	0	0	0	0	320
1	0	0	0	0	608
2	0	0	0	0	328
3	0	0	0	0	610
4	0	0	0	0	326
5	0	0	0	0	607
6	0	0	0	0	324
7	0	0	0	0	609
8	0	0	0	0	322
9	0	0	0	0	612
10	0	0	0	0	317
11	0	0	0	0	600
12	0	0	0	0	326
13	0	0	0	0	610
14	0	0	0	0	324
15	0	0	0	0	609
0	0	0	0	0	329
1	0	0	0	0	616
2	0	0	0	0	325
3	0	0	0	0	616
4	0	0	0	0	326
5	0	0	0	0	605
6	0	0	0	0	326
7	0	0	0	0	606
8	0	0	0	0	319
9	0	0	0	0	613
10	0	0	0	0	326
11	0	0	0	0	599
12	0	0	0	0	324
13	0	0	0	0	605
14	0	0	0	0	323
15	0	0	0	0	607
0	0	0	0	0	327
1	0	0	0	0	615
2	0	0	0	0	319
3	0	0	0	0	604
4	0	0	0	0	318
5	0	0	0	0	610
6	0	0	0	0	319
7	0	0	0	0	611
8	0	0	0	0	325
9	0	0	0	0	615
10	0	0	0	0	324
11	0	0	0	0	610
12	0	0	0	0	334
13	0	0	0	0	614
14	0	0	0	0	320
15	0	0	0	0	603
0	0	0	0	0	330
1	0	0	0	0	610
2	0	0	0	0	319
3	0	0	0	0	615
4	0	0	0	0	320
5	0	0	0	0	606
6	0	0	0	0	323
7	0	0	0	0	614
8	0	0	0	0	328
9	0	0	0	0	608
10	0	0	0	0	319
11	0	0	0	0	608
12	0	0	0	0	318
13	0	0	0	0	615
14	0	0	0	0	325
15	0	0	0	0	612
0	0	0	0	0	324
1	0	0	0	0	608
2	0	0	0	0	325
3	0	0	0	0	610
4	0	0	0	0	329
5	0	0	0	0	607
6	0	0	0	0	324
7	0	0	0	0	613
8	0	0	0	0	317
9	0	0	0	0	610
10	0	0	0	0	317
11	0	0	0	0	609
12	0	0	0	0	326
13	0	0	0	0	605
14	0	0	0	0	325
15	0	0	0	0	612
0	0	0	0	0	323
1	0	0	0	0	616
2	0	0	0	0	327
3	0	0	0	0	612
4	0	0	0	0	322
5	0	0	0	0	612
6	0	0	0	0	320
7	0	0	0	0	609
8	0	0	0	0	324
9	0	0	0	0	609
10	0	0	0	0	324
11	0	0	0	0	612
12	0	0	0	0	326
13	0	0	0	0	613
14	0	0	0	0	324
15	0	0	0	0	618
0	0	0	0	0	320
1	0	0	0	0	606
2	0	0	0	0	329
3	0	0	0	0	613
4	0	0	0	0	320
5	0	0	0	0	607
6	0	0	0	0	316
7	0	0	0	0	610
8	0	0	0	0	326
9	0	0	0	0	614
10	0	0	0	0	329
11	0	0	0	0	609
12	0	0	0	0	321
13	0	0	0	0	610
14	0	0	0	0	319
15	0	0	0	0	614
0	0	0	0	0	326
1	0	0	0	0	612
2	0	0	0	0	323
3	0	0	0	0	619
4	0	0	0	0	317
5	0	0	0	0	609
6	0	0	0	0	326
7	0	0	0	0	600
8	0	0	0	0	319
9	0	0	0	0	604
10	0	0	0	0	328
11	0	0	0	0	611
12	0	0	0	0	318
13	0	0	0	0	618
14	0	0	0	0	334
15	0	0	0	0	612
0	0	0	0	0	329
1	0	0	0	0	609
2	0	0	0	0	324
3	0	0	0	0	610
4	0	0	0	0	326
5	0	0	0	0	620
6	0	0	0	0	315
7	0	0	0	0	606
8	0	0	0	0	314
9	0	0	0	0	607
10	0	0	0	0	322
11	0	0	0	0	608
12	0	0	0	0	318
13	0	0	0	0	609
14	0	0	0	0	328
15	0	0	0	0	612
0	0	0	0	0	320
1	0	0	0	0	614
2	0	0	0	0	325
3	0	0	0	0	609
4	0	0	0	0	323
5	0	0	0	0	606
6	0	0	0	0	322
7	0	0	0	0	605
8	0	0	0	0	322
9	0	0	0	0	611
10	0	0	0	0	317
11	0	0	0	0	611
12	0	0	0	0	324
13	0	0	0	0	612
14	0	0	0	0	325
15	0	0	0	0	604
0	0	0	0	0	329
1	0	0	0	0	605
2	0	0	0	0	316
3	0	0	0	0	606
4	0	0	0	0	320
5	0	0	0	0	610
6	0	0	0	0	328
7	0	0	0	0	602
8	0	0	0	0	320
9	0	0	0	0	605
10	0	0	0	0	320
11	0	0	0	0	611
12	0	0	0	0	317
13	0	0	0	0	614
14	0	0	0	0	326
15	0	0	0	0	604
0	0	0	0	0	327
1	0	0	0	0	614
2	0	0	0	0	329
3	0	0	0	0	604
4	0	0	0	0	323
5	0	0	0	0	606
6	0	0	0	0	324
7	0	0	0	0	609
8	0	0	0	0	323
9	0	0	0	0	605
10	0	0	0	0	324
11	0	0	0	0	614
12	0	0	0	0	322
13	0	0	0	0	609
14	0	0	0	0	314
15	0	0	0	0	604
0	0	0	0	0	327
1	0	0	0	0	609
2	0	0	0	0	324
3	0	0	0	0	611
4	0	0	0	0	324
5	0	0	0	0	611
6	0	0	0	0	334
7	0	0	0	0	614
8	0	0	0	0	317
9	0	0	0	0	608
10	0	0	0	0	321
11	0	0	0	0	612
12	0	0	0	0	317
13	0	0	0	0	603
14	0	0	0	0	324
15	0	0	0	0	610
0	0	0	0	0	321
1	0	0	0	0	609
2	0	0	0	0	329
3	0	0	0	0	609
4	0	0	0	0	323
5	0	0	0	0	610
6	0	0	0	0	324
7	0	0	0	0	612
8	0	0	0	0	324
9	0	0	0	0	609
10	0	0	0	0	325
11	0	0	0	0	612
12	0	0	0	0	314
13	0	0	0	0	614
14	0	0	0	0	330
15	0	0	0	0	610
0	0	0	0	0	320
1	0	0	0	0	613
2	0	0	0	0	324
3	0	0	0	0	604
4	0	0	0	0	328
5	0	0	0	0	608
6	0	0	0	0	325
7	0	0	0	0	616
8	0	0	0	0	324
9	0	0	0	0	605
10	0	0	0	0	318
11	0	0	0	0	612
12	0	0	0	0	327
13	0	0	0	0	611
14	0	0	0	0	316
15	0	0	0	0	611
0	0	0	0	0	320
1	0	0	0	0	615
2	0	0	0	0	324
3	0	0	0	0	610
4	0	0	0	0	315
5	0	0	0	0	611
6	0	0	0	0	328
7	0	0	0	0	601
8	0	0	0	0	320
9	0	0	0	0	609
10	0	0	0	0	323
11	0	0	0	0	606
12	0	0	0	0	320
13	0	0	0	0	606
14	0	0	0	0	322
15	0	0	0	0	608
0	0	0	0	0	319
1	0	0	0	0	610
2	0	0	0	0	316
3	0	0	0	0	616
4	0	0	0	0	320
5	0	0	0	0	612
6	0	0	0	0	327
7	0	0	0	0	604
8	0	0	0	0	317
9	0	0	0	0	614
10	0	0	0	0	323
11	0	0	0	0	609
12	0	0	0	0	323
13	0	0	0	0	609
14	0	0	0	0	322
15	0	0	0	0	608
0	0	0	0	0	321
1	0	0	0	0	615
2	0	0	0	0	319
3	0	0	0	0	612
4	0	0	0	0	315
5	0	0	0	0	615
6	0	0	0	0	323
7	0	0	0	0	610
8	0	0	0	0	322
9	0	0	0	0	611
10	0	0	0	0	326
11	0	0	0	0	613
12	0	0	0	0	320
13	0	0	0	0	610
14	0	0	0	0	320
15	0	0	0	0	613
0	0	0	0	0	320
1	0	0	0	0	613
2	0	0	0	0	323
3	0	0	0	0	605
4	0	0	0	0	316
5	0	0	0	0	608
6	0	0	0	0	327
7	0	0	0	0	612
8	0	0	0	0	315
9	0	0	0	0	616
10	0	0	0	0	328
11	0	0	0	0	609
12	0	0	0	0	317
13	0	0	0	0	604
14	0	0	0	0	318
15	0	0	0	0	608
0	0	0	0	0	321
1	0	0	0	0	611
2	0	0	0	0	320
3	0	0	0	0	610
4	0	0	0	0	319
5	0	0	0	0	610
6	0	0	0	0	322
7	0	0	0	0	615
8	0	0	0	0	327
9	0	0	0	0	608
10	0	0	0	0	320
11	0	0	0	0	609
12	0	0	0	0	318
13	0	0	0	0	605
14	0	0	0	0	323
15	0	0	0	0	608
0	0	0	0	0	324
1	0	0	0	0	613
2	0	0	0	0	323
3	0	0	0	0	609
4	0	0	0	0	326
5	0	0	0	0	607
6	0	0	0	0	321
7	0	0	0	0	608
8	0	0	0	0	322
9	0	0	0	0	610
10	0	0	0	0	324
11	0	0	0	0	608
12	0	0	0	0	326
13	0	0	0	0	612
14	0	0	0	0	329
15	0	0	0	0	604
0	0	0	0	0	316
1	0	0	0	0	611
2	0	0	0	0	323
3	0	0	0	0	614
4	0	0	0	0	326
5	0	0	0	0	608
6	0	0	0	0	316
7	0	0	0	0	613
8	0	0	0	0	319
9	0	0	0	0	604
10	0	0	0	0	320
11	0	0	0	0	612
12	0	0	0	0	329
13	0	0	0	0	604
14	0	0	0	0	324
15	0	0	0	0	608
0	0	0	0	0	318
1	0	0	0	0	608
2	0	0	0	0	316
3	0	0	0	0	613
4	0	0	0	0	315
5	0	0	0	0	607
6	0	0	0	0	315
7	0	0	0	0	607
8	0	0	0	0	324
9	0	0	0	0	615
10	0	0	0	0	316
11	0	0	0	0	613
12	0	0	0	0	320
13	0	0	0	0	608
14	0	0	0	0	319
15	0	0	0	0	601
0	0	0	0	0	326
1	0	0	0	0	609
2	0	0	0	0	319
3	0	0	0	0	613
4	0	0	0	0	320
5	0	0	0	0	617
6	0	0	0	0	324
7	0	0	0	0	604
8	0	0	0	0	329
9	0	0	0	0	605
10	0	0	0	0	326
11	0	0	0	0	604
12	0	0	0	0	330
13	0	0	0	0	611
14	0	0	0	0	323
15	0	0	0	0	606
0	0	0	0	0	320
1	0	0	0	0	612
2	0	0	0	0	325
3	0	0	0	0	607
4	0	0	0	0	321
5	0	0	0	0	606
6	0	0	0	0	326
7	0	0	0	0	613
8	0	0	0	0	318
9	0	0	0	0	606
10	0	0	0	0	329
11	0	0	0	0	604
12	0	0	0	0	318
13	0	0	0	0	608
14	0	0	0	0	317
15	0	0	0	0	608
0	0	0	0	0	320
1	0	0	0	0	612
2	0	0	0	0	327
3	0	0	0	0	611
4	0	0	0	0	328
5	0	0	0	0	614
6	0	0	0	0	317
7	0	0	0	0	606
8	0	0	0	0	317
9	0	0	0	0	617
10	0	0	0	0	321
11	0	0	0	0	613
12	0	0	0	0	324
13	0	0	0	0	612
14	0	0	0	0	325
15	0	0	0	0	608
0	0	0	0	0	317
1	0	0	0	0	608
2	0	0	0	0	326
3	0	0	0	0	615
4	0	0	0	0	328
5	0	0	0	0	605
6	0	0	0	0	320
7	0	0	0	0	611
8	0	0	0	0	320
9	0	0	0	0	607
10	0	0	0	0	318
11	0	0	0	0	604
12	0	0	0	0	323
13	0	0	0	0	610
14	0	0	0	0	319
15	0	0	0	0	612
0	0	0	0	0	323
1	0	0	0	0	616
2	0	0	0	0	325
3	0	0	0	0	606
4	0	0	0	0	326
5	0	0	0	0	607
6	0	0	0	0	322
7	0	0	0	0	613
8	0	0	0	0	311
9	0	0	0	0	612
10	0	0	0	0	326
11	0	0	0	0	606
12	0	0	0	0	323
13	0	0	0	0	602
14	0	0	0	0	317
15	0	0	0	0	605
0	0	0	0	0	322
1	0	0	0	0	611
2	0	0	0	0	322
3	0	0	0	0	604
4	0	0	0	0	325
5	0	0	0	0	610
6	0	0	0	0	324
7	0	0	0	0	607
8	0	0	0	0	323
9	0	0	0	0	611
10	0	0	0	0	321
11	0	0	0	0	611
12	0	0	0	0	328
13	0	0	0	0	608
14	0	0	0	0	321
15	0	0	0	0	607
0	0	0	0	0	331
1	0	0	0	0	607
2	0	0	0	0	316
3	0	0	0	0	606
4	0	0	0	0	323
5	0	0	0	0	621
6	0	0	0	0	325
7	0	0	0	0	611
8	0	0	0	0	321
9	0	0	0	0	611
10	0	0	0	0	318
11	0	0	0	0	608
12	0	0	0	0	320
13	0	0	0	0	614
14	0	0	0	0	323
15	0	0	0	0	614
0	0	0	0	0	325
1	0	0	0	0	609
2	0	0	0	0	323
3	0	0	0	0	610
4	0	0	0	0	320
5	0	0	0	0	609
6	0	0	0	0	321
7	0	0	0	0	612
8	0	0	0	0	320
9	0	0	0	0	611
10	0	0	0	0	318
11	0	0	0	0	609
12	0	0	0	0	323
13	0	0	0	0	605
14	0	0	0	0	321
15	0	0	0	0	608
0	0	0	0	0	320
1	0	0	0	0	613
2	0	0	0	0	326
3	0	0	0	0	615
4	0	0	0	0	319
5	0	0	0	0	609
6	0	0	0	0	329
7	0	0	0	0	604
8	0	0	0	0	324
9	0	0	0	0	611
10	0	0	0	0	314
11	0	0	0	0	608
12	0	0	0	0	320
13	0	0	0	0	617
14	0	0	0	0	323
15	0	0	0	0	609
0	0	0	0	0	322
1	0	0	0	0	613
2	0	0	0	0	319
3	0	0	0	0	614
4	0	0	0	0	317
5	0	0	0	0	609
6	0	0	0	0	316
7	0	0	0	0	612
8	0	0	0	0	324
9	0	0	0	0	608
10	0	0	0	0	320
11	0	0	0	0	602
12	0	0	0	0	321
13	0	0	0	0	606
14	0	0	0	0	317
15	0	0	0	0	612
0	0	0	0	0	320
1	0	0	0	0	610
2	0	0	0	0	310
3	0	0	0	0	609
4	0	0	0	0	323
5	0	0	0	0	600
6	0	0	0	0	320
7	0	0	0	0	609
8	0	0	0	0	322
9	0	0	0	0	604
10	0	0	0	0	317
11	0	0	0	0	606
12	0	0	0	0	328
13	0	0	0	0	608
14	0	0	0	0	324
15	0	0	0	0	611
0	0	0	0	0	322
1	0	0	0	0	611
2	0	0	0	0	320
3	0	0	0	0	605
4	0	0	0	0	318
5	0	0	0	0	605
6	0	0	0	0	323
7	0	0	0	0	603
8	0	0	0	0	317
9	0	0	0	0	609
10	0	0	0	0	324
11	0	0	0	0	611
12	0	0	0	0	317
13	0	0	0	0	609
14	0	0	0	0	320
15	0	0	0	0	605
0	0	0	0	0	320
1	0	0	0	0	606
2	0	0	0	0	328
3	0	0	0	0	613
4	0	0	0	0	319
5	0	0	0	0	604
6	0	0	0	0	318
7	0	0	0	0	612
8	0	0	0	0	324
9	0	0	0	0	607
10	0	0	0	0	329
11	0	0	0	0	609
12	0	0	0	0	319
13	0	0	0	0	615
14	0	0	0	0	324
15	0	0	0	0	606
0	0	0	0	0	325
1	0	0	0	0	607
2	0	0	0	0	323
3	0	0	0	0	608
4	0	0	0	0	322
5	0	0	0	0	615
6	0	0	0	0	322
7	0	0	0	0	615
8	0	0	0	0	316
9	0	0	0	0	611
10	0	0	0	0	328
11	0	0	0	0	607
12	0	0	0	0	318
13	0	0	0	0	602
14	0	0	0	0	324
15	0	0	0	0	612
0	0	0	0	0	326
1	0	0	0	0	612
2	0	0	0	0	328
3	0	0	0	0	610
4	0	0	0	0	324
5	0	0	0	0	607
6	0	0	0	0	326
7	0	0	0	0	604
8	0	0	0	0	321
9	0	0	0	0	612
10	0	0	0	0	325
11	0	0	0	0	606
12	0	0	0	0	319
13	0	0	0	0	611
14	0	0	0	0	323
15	0	0	0	0	610
0	0	0	0	0	317
1	0	0	0	0	608
2	0	0	0	0	320
3	0	0	0	0	613
4	0	0	0	0	322
5	0	0	0	0	612
6	0	0	0	0	320
7	0	0	0	0	614
8	0	0	0	0	323
9	0	0	0	0	609
10	0	0	0	0	322
11	0	0	0	0	616
12	0	0	0	0	322
13	0	0	0	0	600
14	0	0	0	0	324
15	0	0	0	0	615
0	0	0	0	0	324
1	0	0	0	0	609
2	0	0	0	0	324
3	0	0	0	0	601
4	0	0	0	0	323
5	0	0	0	0	606
6	0	0	0	0	325
7	0	0	0	0	606
8	0	0	0	0	321
9	0	0	0	0	612
10	0	0	0	0	316
11	0	0	0	0	603
12	0	0	0	0	324
13	0	0	0	0	612
14	0	0	0	0	326
15	0	0	0	0	611
0	0	0	0	0	319
1	0	0	0	0	614
2	0	0	0	0	326
3	0	0	0	0	605
4	0	0	0	0	325
5	0	0	0	0	614
6	0	0	0	0	322
7	0	0	0	0	608
8	0	0	0	0	324
9	0	0	0	0	612
10	0	0	0	0	321
11	0	0	0	0	616
12	0	0	0	0	318
13	0	0	0	0	608
14	0	0	0	0	331
15	0	0	0	0	612
0	0	0	0	0	322
1	0	0	0	0	616
2	0	0	0	0	321
3	0	0	0	0	609
4	0	0	0	0	315
5	0	0	0	0	603
6	0	0	0	0	317
7	0	0	0	0	608
8	0	0	0	0	321
9	0	0	0	0	603
10	0	0	0	0	331
11	0	0	0	0	612
12	0	0	0	0	319
13	0	0	0	0	603
14	0	0	0	0	320
15	0	0	0	0	606
0	0	0	0	0	324
1	0	0	0	0	612
2	0	0	0	0	317
3	0	0	0	0	608
4	0	0	0	0	322
5	0	0	0	0	604
6	0	0	0	0	321
7	0	0	0	0	611
8	0	0	0	0	326
9	0	0	0	0	606
10	0	0	0	0	320
11	0	0	0	0	612
12	0	0	0	0	323
13	0	0	0	0	608
14	0	0	0	0	327
15	0	0	0	0	607
0	0	0	0	0	322
1	0	0	0	0	607
2	0	0	0	0	318
3	0	0	0	0	612
4	0	0	0	0	324
5	0	0	0	0	602
6	0	0	0	0	321
7	0	0	0	0	608
8	0	0	0	0	324
9	0	0	0	0	606
10	0	0	0	0	318
11	0	0	0	0	612
12	0	0	0	0	320
13	0	0	0	0	605
14	0	0	0	0	328
15	0	0	0	0	606
0	0	0	0	0	319
1	0	0	0	0	604
2	0	0	0	0	325
3	0	0	0	0	604
4	0	0	0	0	323
5	0	0	0	0	609
6	0	0	0	0	323
7	0	0	0	0	606
8	0	0	0	0	325
9	0	0	0	0	608
10	0	0	0	0	318
11	0	0	0	0	611
12	0	0	0	0	323
13	0	0	0	0	609
14	0	0	0	0	320
15	0	0	0	0	602
0	0	0	0	0	323
1	0	0	0	0	611
2	0	0	0	0	318
3	0	0	0	0	613
4	0	0	0	0	316
5	0	0	0	0	611
6	0	0	0	0	323
7	0	0	0	0	605
8	0	0	0	0	322
9	0	0	0	0	607
10	0	0	0	0	323
11	0	0	0	0	611
12	0	0	0	0	324
13	0	0	0	0	614
14	0	0	0	0	316
15	0	0	0	0	614
0	0	0	0	0	322
1	0	0	0	0	612
2	0	0	0	0	325
3	0	0	0	0	611
4	0	0	0	0	323
5	0	0	0	0	608
6	0	0	0	0	324
7	0	0	0	0	608
8	0	0	0	0	320
9	0	0	0	0	605
10	0	0	0	0	324
11	0	0	0	0	602
12	0	0	0	0	320
13	0	0	0	0	608
14	0	0	0	0	314
15	0	0	0	0	605
0	0	0	0	0	319
1	0	0	0	0	604
2	0	0	0	0	320
3	0	0	0	0	612
4	0	0	0	0	328
5	0	0	0	0	609
6	0	0	0	0	322
7	0	0	0	0	608
8	0	0	0	0	315
9	0	0	0	0	608
10	0	0	0	0	317
11	0	0	0	0	613
12	0	0	0	0	323
13	0	0	0	0	611
14	0	0	0	0	320
15	0	0	0	0	605
0	0	0	0	0	319
1	0	0	0	0	602
2	0	0	0	0	321
3	0	0	0	0	603
4	0	0	0	0	321