# OpenSignals Text File Format. Version 1
# {"84:BA:20:5E:FF:7F": {"position": 0, "device": "bitalino_rev", "device name": "84:BA:20:5E:FF:7F", "device connection": "BTH84:BA:20:5E:FF:7F", "sampling rate": 100, "resolution": [4, 1, 1, 1, 1, 10], "firmware version": 1282, "comments": "", "keywords": "", "mode": 0, "sync interval": 2, "date": "2024-3-6", "time": "19:2:40.159", "channels": [1], "sensor": ["EMGBITREV"], "label": ["A1"], "column": ["nSeq", "I1", "I2", "O1", "O2", "A1"], "special": [{}], "digital IO": [0, 0, 1, 1]}}
# EndOfHeader
0	0	0	0	0	377
1	0	0	0	0	580
2	0	0	0	0	378
3	0	0	0	0	588
4	0	0	0	0	382
5	0	0	0	0	576
6	0	0	0	0	384
7	0	0	0	0	577
8	0	0	0	0	384
9	0	0	0	0	579
10	0	0	0	0	382
11	0	0	0	0	573
12	0	0	0	0	384
13	0	0	0	0	586
14	0	0	0	0	392
15	0	0	0	0	573
0	0	0	0	0	396
1	0	0	0	0	574
2	0	0	0	0	386
3	0	0	0	0	589
4	0	0	0	0	380
5	0	0	0	0	581
6	0	0	0	0	387
7	0	0	0	0	576
8	0	0	0	0	377
9	0	0	0	0	569
10	0	0	0	0	386
11	0	0	0	0	570
12	0	0	0	0	392
13	0	0	0	0	585
14	0	0	0	0	388
15	0	0	0	0	575
0	0	0	0	0	396
1	0	0	0	0	573
2	0	0	0	0	391
3	0	0	0	0	570
4	0	0	0	0	396
5	0	0	0	0	572
6	0	0	0	0	394
7	0	0	0	0	576
8	0	0	0	0	393
9	0	0	0	0	569
10	0	0	0	0	400
11	0	0	0	0	568
12	0	0	0	0	392
13	0	0	0	0	577
14	0	0	0	0	392
15	0	0	0	0	561
0	0	0	0	0	401
1	0	0	0	0	573
2	0	0	0	0	391
3	0	0	0	0	564
4	0	0	0	0	402
5	0	0	0	0	568
6	0	0	0	0	399
7	0	0	0	0	572
8	0	0	0	0	404
9	0	0	0	0	560
10	0	0	0	0	393
11	0	0	0	0	570
12	0	0	0	0	399
13	0	0	0	0	565
14	0	0	0	0	410
15	0	0	0	0	551
0	0	0	0	0	404
1	0	0	0	0	561
2	0	0	0	0	404
3	0	0	0	0	560
4	0	0	0	0	413
5	0	0	0	0	563
6	0	0	0	0	404
7	0	0	0	0	558
8	0	0	0	0	413
9	0	0	0	0	555
10	0	0	0	0	409
11	0	0	0	0	559
12	0	0	0	0	413
13	0	0	0	0	550
14	0	0	0	0	419
15	0	0	0	0	555
0	0	0	0	0	420
1	0	0	0	0	554
2	0	0	0	0	416
3	0	0	0	0	541
4	0	0	0	0	421
5	0	0	0	0	558
6	0	0	0	0	423
7	0	0	0	0	548
8	0	0	0	0	421
9	0	0	0	0	547
10	0	0	0	0	423
11	0	0	0	0	554
12	0	0	0	0	419
13	0	0	0	0	538
14	0	0	0	0	424
15	0	0	0	0	554
0	0	0	0	0	425
1	0	0	0	0	547
2	0	0	0	0	420
3	0	0	0	0	544
4	0	0	0	0	429
5	0	0	0	0	550
6	0	0	0	0	419
7	0	0	0	0	540
8	0	0	0	0	430
9	0	0	0	0	545
10	0	0	0	0	425
11	0	0	0	0	539
12	0	0	0	0	436
13	0	0	0	0	535
14	0	0	0	0	431
15	0	0	0	0	552
0	0	0	0	0	420
1	0	0	0	0	540
2	0	0	0	0	428
3	0	0	0	0	540
4	0	0	0	0	434
5	0	0	0	0	538
6	0	0	0	0	439
7	0	0	0	0	528
8	0	0	0	0	443
9	0	0	0	0	550
10	0	0	0	0	426
11	0	0	0	0	546
12	0	0	0	0	438
13	0	0	0	0	533
14	0	0	0	0	431
15	0	0	0	0	535
0	0	0	0	0	447
1	0	0	0	0	522
2	0	0	0	0	449
3	0	0	0	0	538
4	0	0	0	0	449
5	0	0	0	0	534
6	0	0	0	0	452
7	0	0	0	0	523
8	0	0	0	0	441
9	0	0	0	0	533
10	0	0	0	0	452
11	0	0	0	0	522
12	0	0	0	0	455
13	0	0	0	0	525
14	0	0	0	0	466
15	0	0	0	0	509
0	0	0	0	0	482
1	0	0	0	0	496
2	0	0	0	0	486
3	0	0	0	0	498
4	0	0	0	0	486
5	0	0	0	0	496
6	0	0	0	0	489
7	0	0	0	0	497
8	0	0	0	0	481
9	0	0	0	0	495
10	0	0	0	0	496
11	0	0	0	0	496
12	0	0	0	0	489
13	0	0	0	0	495
14	0	0	0	0	487
15	0	0	0	0	494
0	0	0	0	0	492
1	0	0	0	0	488
2	0	0	0	0	497
3	0	0	0	0	491
4	0	0	0	0	484
5	0	0	0	0	495
6	0	0	0	0	486
7	0	0	0	0	498
8	0	0	0	0	481
9	0	0	0	0	495
10	0	0	0	0	479
11	0	0	0	0	506
12	0	0	0	0	477
13	0	0	0	0	500
14	0	0	0	0	476
15	0	0	0	0	507
0	0	0	0	0	470
1	0	0	0	0	517
2	0	0	0	0	477
3	0	0	0	0	509
4	0	0	0	0	475
5	0	0	0	0	503
6	0	0	0	0	482
7	0	0	0	0	510
8	0	0	0	0	469
9	0	0	0	0	507
10	0	0	0	0	470
11	0	0	0	0	510
12	0	0	0	0	473
13	0	0	0	0	514
14	0	0	0	0	457
15	0	0	0	0	572
0	0	0	0	0	399
1	0	0	0	0	552
2	0	0	0	0	400
3	0	0	0	0	567
4	0	0	0	0	406
5	0	0	0	0	560
6	0	0	0	0	400
7	0	0	0	0	584
8	0	0	0	0	394
9	0	0	0	0	569
10	0	0	0	0	400
11	0	0	0	0	586
12	0	0	0	0	393
13	0	0	0	0	587
14	0	0	0	0	397
15	0	0	0	0	573
0	0	0	0	0	404
1	0	0	0	0	581
2	0	0	0	0	390
3	0	0	0	0	569
4	0	0	0	0	393
5	0	0	0	0	581
6	0	0	0	0	384
7	0	0	0	0	587
8	0	0	0	0	393
9	0	0	0	0	573
10	0	0	0	0	390
11	0	0	0	0	593
12	0	0	0	0	378
13	0	0	0	0	600
14	0	0	0	0	385
15	0	0	0	0	578
0	0	0	0	0	375
1	0	0	0	0	593
2	0	0	0	0	378
3	0	0	0	0	588
4	0	0	0	0	374
5	0	0	0	0	608
6	0	0	0	0	361
7	0	0	0	0	611
8	0	0	0	0	362
9	0	0	0	0	601
10	0	0	0	0	367
11	0	0	0	0	616
12	0	0	0	0	360
13	0	0	0	0	603
14	0	0	0	0	361
15	0	0	0	0	619
0	0	0	0	0	346
1	0	0	0	0	636
2	0	0	0	0	350
3	0	0	0	0	604
4	0	0	0	0	343
5	0	0	0	0	629
6	0	0	0	0	338
7	0	0	0	0	637
8	0	0	0	0	342
9	0	0	0	0	625
10	0	0	0	0	338
11	0	0	0	0	632
12	0	0	0	0	341
13	0	0	0	0	615
14	0	0	0	0	333
15	0	0	0	0	640
0	0	0	0	0	329
1	0	0	0	0	645
2	0	0	0	0	328
3	0	0	0	0	621
4	0	0	0	0	331
5	0	0	0	0	645
6	0	0	0	0	328
7	0	0	0	0	650
8	0	0	0	0	325
9	0	0	0	0	644
10	0	0	0	0	320
11	0	0	0	0	644
12	0	0	0	0	323
13	0	0	0	0	632
14	0	0	0	0	319
15	0	0	0	0	654
0	0	0	0	0	313
1	0	0	0	0	654
2	0	0	0	0	321
3	0	0	0	0	649
4	0	0	0	0	312
5	0	0	0	0	658
6	0	0	0	0	320
7	0	0	0	0	635
8	0	0	0	0	316
9	0	0	0	0	657
10	0	0	0	0	305
11	0	0	0	0	664
12	0	0	0	0	310
13	0	0	0	0	640
14	0	0	0	0	321
15	0	0	0	0	658
0	0	0	0	0	312
1	0	0	0	0	660
2	0	0	0	0	318
3	0	0	0	0	658
4	0	0	0	0	311
5	0	0	0	0	662
6	0	0	0	0	309
7	0	0	0	0	644
8	0	0	0	0	321
9	0	0	0	0	665
10	0	0	0	0	311
11	0	0	0	0	664
12	0	0	0	0	317
13	0	0	0	0	649
14	0	0	0	0	322
15	0	0	0	0	660
0	0	0	0	0	319
1	0	0	0	0	648
2	0	0	0	0	314
3	0	0	0	0	663
4	0	0	0	0	309
5	0	0	0	0	655
6	0	0	0	0	322
7	0	0	0	0	651
8	0	0	0	0	320
9	0	0	0	0	656
10	0	0	0	0	313
11	0	0	0	0	649
12	0	0	0	0	314
13	0	0	0	0	659
14	0	0	0	0	322
15	0	0	0	0	658
0	0	0	0	0	317
1	0	0	0	0	640
2	0	0	0	0	315
3	0	0	0	0	656
4	0	0	0	0	322
5	0	0	0	0	650
6	0	0	0	0	320
7	0	0	0	0	658
8	0	0	0	0	317
9	0	0	0	0	661
10	0	0	0	0	325
11	0	0	0	0	652
12	0	0	0	0	316
13	0	0	0	0	657
14	0	0	0	0	309
15	0	0	0	0	651
0	0	0	0	0	321
1	0	0	0	0	653
2	0	0	0	0	323
3	0	0	0	0	664
4	0	0	0	0	318
5	0	0	0	0	652
6	0	0	0	0	318
7	0	0	0	0	654
8	0	0	0	0	321
9	0	0	0	0	651
10	0	0	0	0	312
11	0	0	0	0	640
12	0	0	0	0	324
13	0	0	0	0	652
14	0	0	0	0	323
15	0	0	0	0	652
0	0	0	0	0	322
1	0	0	0	0	637
2	0	0	0	0	328
3	0	0	0	0	653
4	0	0	0	0	325
5	0	0	0	0	654
6	0	0	0	0	320
7	0	0	0	0	653
8	0	0	0	0	317
9	0	0	0	0	650
10	0	0	0	0	322
11	0	0	0	0	644
12	0	0	0	0	318
13	0	0	0	0	647
14	0	0	0	0	322
15	0	0	0	0	650
0	0	0	0	0	324
1	0	0	0	0	647
2	0	0	0	0	329
3	0	0	0	0	653
4	0	0	0	0	317
5	0	0	0	0	647
6	0	0	0	0	314
7	0	0	0	0	644
8	0	0	0	0	324
9	0	0	0	0	645
10	0	0	0	0	322
11	0	0	0	0	651
12	0	0	0	0	324
13	0	0	0	0	647
14	0	0	0	0	322
15	0	0	0	0	645
0	0	0	0	0	320
1	0	0	0	0	645
2	0	0	0	0	320
3	0	0	0	0	653
4	0	0	0	0	324
5	0	0	0	0	642
6	0	0	0	0	336
7	0	0	0	0	640
8	0	0	0	0	326
9	0	0	0	0	648
10	0	0	0	0	328
11	0	0	0	0	644
12	0	0	0	0	323
13	0	0	0	0	640
14	0	0	0	0	325
15	0	0	0	0	647
0	0	0	0	0	322
1	0	0	0	0	638
2	0	0	0	0	333
3	0	0	0	0	639
4	0	0	0	0	328
5	0	0	0	0	637
6	0	0	0	0	330
7	0	0	0	0	634
8	0	0	0	0	332
9	0	0	0	0	640
10	0	0	0	0	328
11	0	0	0	0	646
12	0	0	0	0	327
13	0	0	0	0	636
14	0	0	0	0	329
15	0	0	0	0	637
0	0	0	0	0	339
1	0	0	0	0	637
2	0	0	0	0	333
3	0	0	0	0	635
4	0	0	0	0	331
5	0	0	0	0	638
6	0	0	0	0	344
7	0	0	0	0	632
8	0	0	0	0	332
9	0	0	0	0	637
10	0	0	0	0	328
11	0	0	0	0	637
12	0	0	0	0	335
13	0	0	0	0	625
14	0	0	0	0	329
15	0	0	0	0	633
0	0	0	0	0	341
1	0	0	0	0	639
2	0	0	0	0	338
3	0	0	0	0	641
4	0	0	0	0	337
5	0	0	0	0	634
6	0	0	0	0	332
7	0	0	0	0	632
8	0	0	0	0	334
9	0	0	0	0	639
10	0	0	0	0	342
11	0	0	0	0	636
12	0	0	0	0	334
13	0	0	0	0	644
14	0	0	0	0	343
15	0	0	0	0	637
0	0	0	0	0	340
1	0	0	0	0	633
2	0	0	0	0	333
3	0	0	0	0	632
4	0	0	0	0	341
5	0	0	0	0	630
6	0	0	0	0	332
7	0	0	0	0	639
8	0	0	0	0	339
9	0	0	0	0	638
10	0	0	0	0	336
11	0	0	0	0	633
12	0	0	0	0	333
13	0	0	0	0	639
14	0	0	0	0	331
15	0	0	0	0	630
0	0	0	0	0	346
1	0	0	0	0	633
2	0	0	0	0	337
3	0	0	0	0	629
4	0	0	0	0	345
5	0	0	0	0	633
6	0	0	0	0	326
7	0	0	0	0	633
8	0	0	0	0	334
9	0	0	0	0	631
10	0	0	0	0	342
11	0	0	0	0	635
12	0	0	0	0	336
13	0	0	0	0	639
14	0	0	0	0	340
15	0	0	0	0	631
0	0	0	0	0	335
1	0	0	0	0	632
2	0	0	0	0	333
3	0	0	0	0	629
4	0	0	0	0	344
5	0	0	0	0	630
6	0	0	0	0	344
7	0	0	0	0	626
8	0	0	0	0	338
9	0	0	0	0	631
10	0	0	0	0	343
11	0	0	0	0	637
12	0	0	0	0	333
13	0	0	0	0	634
14	0	0	0	0	341
15	0	0	0	0	631
0	0	0	0	0	342
1	0	0	0	0	628
2	0	0	0	0	339
3	0	0	0	0	633
4	0	0	0	0	347
5	0	0	0	0	624
6	0	0	0	0	338
7	0	0	0	0	627
8	0	0	0	0	336
9	0	0	0	0	638
10	0	0	0	0	341
11	0	0	0	0	631
12	0	0	0	0	333
13	0	0	0	0	632
14	0	0	0	0	347
15	0	0	0	0	631
0	0	0	0	0	333
1	0	0	0	0	632
2	0	0	0	0	348
3	0	0	0	0	619
4	0	0	0	0	341
5	0	0	0	0	625
6	0	0	0	0	341
7	0	0	0	0	623
8	0	0	0	0	341
9	0	0	0	0	628
10	0	0	0	0	344
11	0	0	0	0	628
12	0	0	0	0	341
13	0	0	0	0	630
14	0	0	0	0	342
15	0	0	0	0	631
0	0	0	0	0	337
1	0	0	0	0	629
2	0	0	0	0	344
3	0	0	0	0	630
4	0	0	0	0	340
5	0	0	0	0	627
6	0	0	0	0	339
7	0	0	0	0	628
8	0	0	0	0	343
9	0	0	0	0	628
10	0	0	0	0	341
11	0	0	0	0	622
12	0	0	0	0	336
13	0	0	0	0	634
14	0	0	0	0	342
15	0	0	0	0	632
0	0	0	0	0	345
1	0	0	0	0	627
2	0	0	0	0	338
3	0	0	0	0	632
4	0	0	0	0	344
5	0	0	0	0	637
6	0	0	0	0	341
7	0	0	0	0	627
8	0	0	0	0	338
9	0	0	0	0	631
10	0	0	0	0	333
11	0	0	0	0	638
12	0	0	0	0	341
13	0	0	0	0	623
14	0	0	0	0	339
15	0	0	0	0	626
0	0	0	0	0	338
1	0	0	0	0	619
2	0	0	0	0	348
3	0	0	0	0	629
4	0	0	0	0	340
5	0	0	0	0	637
6	0	0	0	0	342
7	0	0	0	0	627
8	0	0	0	0	344
9	0	0	0	0	637
10	0	0	0	0	341
11	0	0	0	0	630
12	0	0	0	0	343
13	0	0	0	0	633
14	0	0	0	0	343
15	0	0	0	0	634
0	0	0	0	0	340
1	0	0	0	0	628
2	0	0	0	0	349
3	0	0	0	0	630
4	0	0	0	0	333
5	0	0	0	0	628
6	0	0	0	0	343
7	0	0	0	0	632
8	0	0	0	0	347
9	0	0	0	0	634
10	0	0	0	0	345
11	0	0	0	0	633
12	0	0	0	0	344
13	0	0	0	0	627
14	0	0	0	0	344
15	0	0	0	0	630
0	0	0	0	0	338
1	0	0	0	0	628
2	0	0	0	0	344
3	0	0	0	0	626
4	0	0	0	0	335
5	0	0	0	0	634
6	0	0	0	0	341
7	0	0	0	0	631
8	0	0	0	0	334
9	0	0	0	0	632
10	0	0	0	0	346
11	0	0	0	0	635
12	0	0	0	0	338
13	0	0	0	0	622
14	0	0	0	0	339
15	0	0	0	0	630
0	0	0	0	0	340
1	0	0	0	0	625
2	0	0	0	0	340
3	0	0	0	0	632
4	0	0	0	0	333
5	0	0	0	0	637
6	0	0	0	0	343
7	0	0	0	0	634
8	0	0	0	0	333
9	0	0	0	0	640
10	0	0	0	0	338
11	0	0	0	0	639
12	0	0	0	0	329
13	0	0	0	0	634
14	0	0	0	0	334
15	0	0	0	0	633
0	0	0	0	0	343
1	0	0	0	0	627
2	0	0	0	0	338
3	0	0	0	0	643
4	0	0	0	0	332
5	0	0	0	0	640
6	0	0	0	0	334
7	0	0	0	0	637
8	0	0	0	0	336
9	0	0	0	0	637
10	0	0	0	0	336
11	0	0	0	0	641
12	0	0	0	0	336
13	0	0	0	0	633
14	0	0	0	0	329
15	0	0	0	0	637
0	0	0	0	0	340
1	0	0	0	0	633
2	0	0	0	0	329
3	0	0	0	0	635
4	0	0	0	0	332
5	0	0	0	0	633
6	0	0	0	0	333
7	0	0	0	0	635
8	0	0	0	0	332
9	0	0	0	0	636
10	0	0	0	0	336
11	0	0	0	0	634
12	0	0	0	0	333
13	0	0	0	0	635
14	0	0	0	0	332
15	0	0	0	0	636
0	0	0	0	0	334
1	0	0	0	0	634
2	0	0	0	0	329
3	0	0	0	0	635
4	0	0	0	0	332
5	0	0	0	0	632
6	0	0	0	0	332
7	0	0	0	0	635
8	0	0	0	0	328
9	0	0	0	0	637
10	0	0	0	0	337
11	0	0	0	0	639
12	0	0	0	0	333
13	0	0	0	0	637
14	0	0	0	0	334
15	0	0	0	0	631
0	0	0	0	0	337
1	0	0	0	0	634
2	0	0	0	0	337
3	0	0	0	0	629
4	0	0	0	0	334
5	0	0	0	0	628
6	0	0	0	0	334
7	0	0	0	0	642
8	0	0	0	0	333
9	0	0	0	0	640
10	0	0	0	0	335
11	0	0	0	0	633
12	0	0	0	0	333
13	0	0	0	0	633
14	0	0	0	0	335
15	0	0	0	0	639
0	0	0	0	0	333
1	0	0	0	0	643
2	0	0	0	0	338
3	0	0	0	0	636
4	0	0	0	0	335
5	0	0	0	0	639
6	0	0	0	0	339
7	0	0	0	0	633
8	0	0	0	0	332
9	0	0	0	0	633
10	0	0	0	0	327
11	0	0	0	0	640
12	0	0	0	0	325
13	0	0	0	0	634
14	0	0	0	0	335
15	0	0	0	0	633
0	0	0	0	0	333
1	0	0	0	0	640
2	0	0	0	0	336
3	0	0	0	0	633
4	0	0	0	0	333
5	0	0	0	0	635
6	0	0	0	0	336
7	0	0	0	0	637
8	0	0	0	0	332
9	0	0	0	0	638
10	0	0	0	0	331
11	0	0	0	0	648
12	0	0	0	0	333
13	0	0	0	0	641
14	0	0	0	0	339
15	0	0	0	0	636
0	0	0	0	0	331
1	0	0	0	0	641
2	0	0	0	0	338
3	0	0	0	0	639
4	0	0	0	0	329
5	0	0	0	0	635
6	0	0	0	0	333
7	0	0	0	0	635
8	0	0	0	0	332
9	0	0	0	0	638
10	0	0	0	0	338
11	0	0	0	0	630
12	0	0	0	0	328
13	0	0	0	0	632
14	0	0	0	0	332
15	0	0	0	0	632
0	0	0	0	0	335
1	0	0	0	0	643
2	0	0	0	0	328
3	0	0	0	0	642
4	0	0	0	0	335
5	0	0	0	0	639
6	0	0	0	0	337
7	0	0	0	0	640
8	0	0	0	0	333
9	0	0	0	0	639
10	0	0	0	0	344
11	0	0	0	0	639
12	0	0	0	0	329
13	0	0	0	0	630
14	0	0	0	0	337
15	0	0	0	0	633
0	0	0	0	0	333
1	0	0	0	0	637
2	0	0	0	0	336
3	0	0	0	0	645
4	0	0	0	0	337
5	0	0	0	0	632
6	0	0	0	0	337
7	0	0	0	0	632
8	0	0	0	0	335
9	0	0	0	0	634
10	0	0	0	0	335
11	0	0	0	0	637
12	0	0	0	0	336
13	0	0	0	0	630
14	0	0	0	0	341
15	0	0	0	0	635
0	0	0	0	0	333
1	0	0	0	0	633
2	0	0	0	0	338
3	0	0	0	0	626
4	0	0	0	0	334
5	0	0	0	0	634
6	0	0	0	0	338
7	0	0	0	0	639
8	0	0	0	0	338
9	0	0	0	0	637
10	0	0	0	0	335
11	0	0	0	0	629
12	0	0	0	0	344
13	0	0	0	0	635
14	0	0	0	0	339
15	0	0	0	0	640
0	0	0	0	0	339
1	0	0	0	0	633
2	0	0	0	0	337
3	0	0	0	0	632
4	0	0	0	0	333
5	0	0	0	0	634
6	0	0	0	0	331
7	0	0	0	0	627
8	0	0	0	0	337
9	0	0	0	0	630
10	0	0	0	0	338
11	0	0	0	0	637
12	0	0	0	0	341
13	0	0	0	0	633
14	0	0	0	0	342
15	0	0	0	0	633
0	0	0	0	0	338
1	0	0	0	0	638
2	0	0	0	0	340
3	0	0	0	0	631
4	0	0	0	0	335
5	0	0	0	0	631
6	0	0	0	0	339
7	0	0	0	0	634
8	0	0	0	0	343
9	0	0	0	0	632
10	0	0	0	0	338
11	0	0	0	0	628
12	0	0	0	0	337
13	0	0	0	0	629
14	0	0	0	0	335
15	0	0	0	0	632
0	0	0	0	0	332
1	0	0	0	0	627
2	0	0	0	0	337
3	0	0	0	0	628
4	0	0	0	0	337
5	0	0	0	0	632
6	0	0	0	0	337
7	0	0	0	0	632
8	0	0	0	0	344
9	0	0	0	0	631
10	0	0	0	0	340
11	0	0	0	0	633
12	0	0	0	0	342
13	0	0	0	0	627
14	0	0	0	0	339
15	0	0	0	0	629
0	0	0	0	0	339
1	0	0	0	0	632
2	0	0	0	0	340
3	0	0	0	0	631
4	0	0	0	0	340
5	0	0	0	0	634
6	0	0	0	0	341
7	0	0	0	0	628
8	0	0	0	0	339
9	0	0	0	0	627
10	0	0	0	0	343
11	0	0	0	0	621
12	0	0	0	0	342
13	0	0	0	0	619
14	0	0	0	0	345
15	0	0	0	0	623
0	0	0	0	0	352
1	0	0	0	0	624
2	0	0	0	0	345
3	0	0	0	0	632
4	0	0	0	0	343
5	0	0	0	0	634
6	0	0	0	0	344
7	0	0	0	0	627
8	0	0	0	0	341
9	0	0	0	0	628
10	0	0	0	0	350
11	0	0	0	0	632
12	0	0	0	0	343
13	0	0	0	0	618
14	0	0	0	0	352
15	0	0	0	0	631
0	0	0	0	0	337
1	0	0	0	0	629
2	0	0	0	0	341
3	0	0	0	0	632
4	0	0	0	0	351
5	0	0	0	0	624
6	0	0	0	0	349
7	0	0	0	0	631
8	0	0	0	0	351
9	0	0	0	0	624
10	0	0	0	0	341
11	0	0	0	0	628
12	0	0	0	0	345
13	0	0	0	0	625
14	0	0	0	0	337
15	0	0	0	0	624
0	0	0	0	0	346
1	0	0	0	0	628
2	0	0	0	0	349
3	0	0	0	0	631
4	0	0	0	0	349
5	0	0	0	0	620
6	0	0	0	0	352
7	0	0	0	0	637
8	0	0	0	0	351
9	0	0	0	0	625
10	0	0	0	0	344
11	0	0	0	0	626
12	0	0	0	0	353
13	0	0	0	0	626
14	0	0	0	0	344
15	0	0	0	0	627
0	0	0	0	0	343
1	0	0	0	0	628
2	0	0	0	0	344
3	0	0	0	0	626
4	0	0	0	0	344
5	0	0	0	0	625
6	0	0	0	0	351
7	0	0	0	0	633
8	0	0	0	0	351
9	0	0	0	0	623
10	0	0	0	0	345
11	0	0	0	0	626
12	0	0	0	0	342
13	0	0	0	0	624
14	0	0	0	0	346
15	0	0	0	0	636
0	0	0	0	0	343
1	0	0	0	0	620
2	0	0	0	0	345
3	0	0	0	0	625
4	0	0	0	0	346
5	0	0	0	0	630
6	0	0	0	0	347
7	0	0	0	0	620
8	0	0	0	0	345
9	0	0	0	0	628
10	0	0	0	0	350
11	0	0	0	0	630
12	0	0	0	0	339
13	0	0	0	0	625
14	0	0	0	0	346
15	0	0	0	0	626
0	0	0	0	0	348
1	0	0	0	0	630
2	0	0	0	0	341
3	0	0	0	0	634
4	0	0	0	0	350
5	0	0	0	0	623
6	0	0	0	0	347
7	0	0	0	0	626
8	0	0	0	0	350
9	0	0	0	0	628
10	0	0	0	0	350
11	0	0	0	0	623
12	0	0	0	0	346
13	0	0	0	0	623
14	0	0	0	0	350
15	0	0	0	0	624
0	0	0	0	0	341
1	0	0	0	0	621
2	0	0	0	0	348
3	0	0	0	0	624
4	0	0	0	0	344
5	0	0	0	0	621
6	0	0	0	0	352
7	0	0	0	0	628
8	0	0	0	0	347
9	0	0	0	0	617
10	0	0	0	0	349
11	0	0	0	0	630
12	0	0	0	0	350
13	0	0	0	0	626
14	0	0	0	0	349
15	0	0	0	0	625
0	0	0	0	0	348
1	0	0	0	0	621
2	0	0	0	0	349
3	0	0	0	0	627
4	0	0	0	0	349
5	0	0	0	0	627
6	0	0	0	0	352
7	0	0	0	0	620
8	0	0	0	0	349
9	0	0	0	0	627
10	0	0	0	0	350
11	0	0	0	0	633
12	0	0	0	0	351
13	0	0	0	0	621
14	0	0	0	0	348
15	0	0	0	0	624
0	0	0	0	0	347
1	0	0	0	0	621
2	0	0	0	0	355
3	0	0	0	0	628
4	0	0	0	0	344
5	0	0	0	0	621
6	0	0	0	0	356
7	0	0	0	0	621
8	0	0	0	0	351
9	0	0	0	0	624
10	0	0	0	0	349
11	0	0	0	0	624
12	0	0	0	0	347
13	0	0	0	0	628
14	0	0	0	0	350
15	0	0	0	0	619
0	0	0	0	0	345
1	0	0	0	0	626
2	0	0	0	0	350
3	0	0	0	0	622
4	0	0	0	0	337
5	0	0	0	0	618
6	0	0	0	0	351
7	0	0	0	0	620
8	0	0	0	0	353
9	0	0	0	0	619
10	0	0	0	0	350
11	0	0	0	0	625
12	0	0	0	0	339
13	0	0	0	0	627
14	0	0	0	0	351
15	0	0	0	0	631
0	0	0	0	0	346
1	0	0	0	0	619
2	0	0	0	0	350
3	0	0	0	0	623
4	0	0	0	0	348
5	0	0	0	0	617
6	0	0	0	0	352
7	0	0	0	0	626
8	0	0	0	0	341
9	0	0	0	0	628
10	0	0	0	0	344
11	0	0	0	0	619
12	0	0	0	0	353
13	0	0	0	0	615
14	0	0	0	0	345
15	0	0	0	0	625
0	0	0	0	0	344
1	0	0	0	0	624
2	0	0	0	0	352
3	0	0	0	0	630
4	0	0	0	0	348
5	0	0	0	0	620
6	0	0	0	0	348
7	0	0	0	0	628
8	0	0	0	0	344
9	0	0	0	0	619
10	0	0	0	0	353
11	0	0	0	0	622
12	0	0	0	0	345
13	0	0	0	0	624
14	0	0	0	0	355
15	0	0	0	0	620
0	0	0	0	0	353
1	0	0	0	0	621
2	0	0	0	0	344
3	0	0	0	0	623
4	0	0	0	0	345
5	0	0	0	0	620
6	0	0	0	0	348
7	0	0	0	0	628
8	0	0	0	0	347
9	0	0	0	0	618
10	0	0	0	0	350
11	0	0	0	0	619
12	0	0	0	0	348
13	0	0	0	0	624
14	0	0	0	0	352
15	0	0	0	0	628
0	0	0	0	0	349
1	0	0	0	0	623
2	0	0	0	0	354
3	0	0	0	0	625
4	0	0	0	0	347
5	0	0	0	0	618
6	0	0	0	0	349
7	0	0	0	0	618
8	0	0	0	0	346
9	0	0	0	0	630
10	0	0	0	0	352
11	0	0	0	0	622
12	0	0	0	0	350
13	0	0	0	0	629
14	0	0	0	0	352
15	0	0	0	0	623
0	0	0	0	0	354
1	0	0	0	0	625
2	0	0	0	0	348
3	0	0	0	0	618
4	0	0	0	0	350
5	0	0	0	0	625
6	0	0	0	0	345
7	0	0	0	0	623
8	0	0	0	0	349
9	0	0	0	0	625
10	0	0	0	0	353
11	0	0	0	0	621
12	0	0	0	0	348
13	0	0	0	0	630
14	0	0	0	0	349
15	0	0	0	0	623
0	0	0	0	0	353
1	0	0	0	0	631
2	0	0	0	0	354
3	0	0	0	0	616
4	0	0	0	0	345
5	0	0	0	0	627
6	0	0	0	0	354
7	0	0	0	0	625
8	0	0	0	0	347
9	0	0	0	0	615
10	0	0	0	0	345
11	0	0	0	0	621
12	0	0	0	0	351
13	0	0	0	0	620
14	0	0	0	0	346
15	0	0	0	0	625
0	0	0	0	0	347
1	0	0	0	0	616
2	0	0	0	0	349
3	0	0	0	0	618
4	0	0	0	0	349
5	0	0	0	0	619
6	0	0	0	0	349
7	0	0	0	0	622
8	0	0	0	0	351
9	0	0	0	0	621
10	0	0	0	0	359
11	0	0	0	0	625
12	0	0	0	0	353
13	0	0	0	0	622
14	0	0	0	0	353
15	0	0	0	0	621
0	0	0	0	0	342
1	0	0	0	0	621
2	0	0	0	0	352
3	0	0	0	0	623
4	0	0	0	0	352
5	0	0	0	0	627
6	0	0	0	0	351
7	0	0	0	0	620
8	0	0	0	0	353
9	0	0	0	0	615
10	0	0	0	0	352
11	0	0	0	0	623
12	0	0	0	0	351
13	0	0	0	0	623
14	0	0	0	0	348
15	0	0	0	0	619
0	0	0	0	0	356
1	0	0	0	0	624
2	0	0	0	0	357
3	0	0	0	0	627
4	0	0	0	0	357
5	0	0	0	0	624
6	0	0	0	0	351
7	0	0	0	0	623
8	0	0	0	0	356
9	0	0	0	0	622
10	0	0	0	0	355
11	0	0	0	0	624
12	0	0	0	0	352
13	0	0	0	0	621
14	0	0	0	0	352
15	0	0	0	0	623
0	0	0	0	0	353
1	0	0	0	0	628
2	0	0	0	0	352
3	0	0	0	0	623
4	0	0	0	0	356
5	0	0	0	0	622
6	0	0	0	0	354
7	0	0	0	0	617
8	0	0	0	0	353
9	0	0	0	0	623
10	0	0	0	0	352
11	0	0	0	0	624
12	0	0	0	0	357
13	0	0	0	0	628
14	0	0	0	0	361
15	0	0	0	0	623
0	0	0	0	0	348
1	0	0	0	0	625
2	0	0	0	0	354
3	0	0	0	0	617
4	0	0	0	0	354
5	0	0	0	0	626
6	0	0	0	0	356
7	0	0	0	0	627
8	0	0	0	0	360
9	0	0	0	0	616
10	0	0	0	0	354
11	0	0	0	0	620
12	0	0	0	0	356
13	0	0	0	0	624
14	0	0	0	0	364
15	0	0	0	0	617
0	0	0	0	0	349
1	0	0	0	0	621
2	0	0	0	0	357
3	0	0	0	0	625
4	0	0	0	0	349
5	0	0	0	0	624
6	0	0	0	0	351
7	0	0	0	0	626
8	0	0	0	0	354
9	0	0	0	0	631
10	0	0	0	0	362
11	0	0	0	0	622
12	0	0	0	0	359
13	0	0	0	0	619
14	0	0	0	0	360
15	0	0	0	0	620
0	0	0	0	0	356
1	0	0	0	0	617
2	0	0	0	0	356
3	0	0	0	0	619
4	0	0	0	0	349
5	0	0	0	0	620
6	0	0	0	0	356
7	0	0	0	0	623
8	0	0	0	0	367
9	0	0	0	0	615
10	0	0	0	0	359
11	0	0	0	0	619
12	0	0	0	0	356
13	0	0	0	0	625
14	0	0	0	0	362
15	0	0	0	0	621
0	0	0	0	0	356
1	0	0	0	0	617
2	0	0	0	0	358
3	0	0	0	0	620
4	0	0	0	0	359
5	0	0	0	0	620
6	0	0	0	0	357
7	0	0	0	0	620
8	0	0	0	0	363
9	0	0	0	0	620
10	0	0	0	0	355
11	0	0	0	0	618
12	0	0	0	0	362
13	0	0	0	0	619
14	0	0	0	0	360
15	0	0	0	0	613
0	0	0	0	0	359
1	0	0	0	0	611
2	0	0	0	0	357
3	0	0	0	0	624
4	0	0	0	0	363
5	0	0	0	0	620
6	0	0	0	0	359
7	0	0	0	0	616
8	0	0	0	0	358
9	0	0	0	0	615
10	0	0	0	0	366
11	0	0	0	0	618
12	0	0	0	0	365
13	0	0	0	0	621
14	0	0	0	0	359
15	0	0	0	0	614
0	0	0	0	0	369
1	0	0	0	0	623
2	0	0	0	0	360
3	0	0	0	0	612
4	0	0	0	0	358
5	0	0	0	0	616
6	0	0	0	0	361
7	0	0	0	0	621
8	0	0	0	0	364
9	0	0	0	0	616
10	0	0	0	0	361
11	0	0	0	0	614
12	0	0	0	0	361
13	0	0	0	0	613
14	0	0	0	0	364
15	0	0	0	0	617
0	0	0	0	0	359
1	0	0	0	0	616
2	0	0	0	0	367
3	0	0	0	0	614
4	0	0	0	0	358
5	0	0	0	0	618
6	0	0	0	0	367
7	0	0	0	0	618
8	0	0	0	0	361
9	0	0	0	0	621
10	0	0	0	0	358
11	0	0	0	0	615
12	0	0	0	0	360
13	0	0	0	0	618
14	0	0	0	0	356
15	0	0	0	0	613
0	0	0	0	0	362
1	0	0	0	0	622
2	0	0	0	0	367
3	0	0	0	0	622
4	0	0	0	0	365
5	0	0	0	0	613
6	0	0	0	0	368
7	0	0	0	0	620
8	0	0	0	0	361
9	0	0	0	0	619
10	0	0	0	0	372
11	0	0	0	0	612
12	0	0	0	0	360
13	0	0	0	0	614
14	0	0	0	0	366
15	0	0	0	0	611
0	0	0	0	0	366
1	0	0	0	0	615
2	0	0	0	0	364
3	0	0	0	0	610
4	0	0	0	0	364
5	0	0	0	0	618
6	0	0	0	0	361
7	0	0	0	0	616
8	0	0	0	0	365
9	0	0	0	0	613
10	0	0	0	0	368
11	0	0	0	0	623
12	0	0	0	0	362
13	0	0	0	0	613
14	0	0	0	0	368
15	0	0	0	0	621
0	0	0	0	0	358
1	0	0	0	0	615
2	0	0	0	0	361
3	0	0	0	0	618
4	0	0	0	0	369
5	0	0	0	0	609
6	0	0	0	0	363
7	0	0	0	0	613
8	0	0	0	0	365
9	0	0	0	0	610
10	0	0	0	0	372
11	0	0	0	0	616
12	0	0	0	0	365
13	0	0	0	0	621
14	0	0	0	0	365
15	0	0	0	0	605
0	0	0	0	0	364
1	0	0	0	0	618
2	0	0	0	0	369
3	0	0	0	0	614
4	0	0	0	0	372
5	0	0	0	0	613
6	0	0	0	0	369
7	0	0	0	0	616
8	0	0	0	0	362
9	0	0	0	0	616
10	0	0	0	0	370
11	0	0	0	0	615
12	0	0	0	0	361
13	0	0	0	0	616
14	0	0	0	0	370
15	0	0	0	0	617
0	0	0	0	0	363
1	0	0	0	0	617
2	0	0	0	0	362
3	0	0	0	0	615
4	0	0	0	0	369
5	0	0	0	0	605
6	0	0	0	0	368
7	0	0	0	0	620
8	0	0	0	0	368
9	0	0	0	0	610
10	0	0	0	0	368
11	0	0	0	0	611
12	0	0	0	0	361
13	0	0	0	0	612
14	0	0	0	0	373
15	0	0	0	0	608
0	0	0	0	0	366
1	0	0	0	0	610
2	0	0	0	0	367
3	0	0	0	0	617
4	0	0	0	0	364
5	0	0	0	0	609
6	0	0	0	0	363
7	0	0	0	0	614
8	0	0	0	0	363
9	0	0	0	0	615
10	0	0	0	0	364
11	0	0	0	0	611
12	0	0	0	0	363
13	0	0	0	0	609
14	0	0	0	0	363
15	0	0	0	0	608
0	0	0	0	0	365
1	0	0	0	0	615
2	0	0	0	0	367
3	0	0	0	0	616
4	0	0	0	0	364
5	0	0	0	0	611
6	0	0	0	0	366
7	0	0	0	0	620
8	0	0	0	0	372
9	0	0	0	0	610
10	0	0	0	0	369
11	0	0	0	0	617
12	0	0	0	0	364
13	0	0	0	0	614
14	0	0	0	0	363
15	0	0	0	0	614
0	0	0	0	0	367
1	0	0	0	0	612
2	0	0	0	0	365
3	0	0	0	0	604
4	0	0	0	0	375
5	0	0	0	0	613
6	0	0	0	0	366
7	0	0	0	0	618
8	0	0	0	0	364
9	0	0	0	0	613
10	0	0	0	0	370
11	0	0	0	0	610
12	0	0	0	0	364
13	0	0	0	0	618
14	0	0	0	0	364
15	0	0	0	0	612
0	0	0	0	0	358
1	0	0	0	0	615
2	0	0	0	0	367
3	0	0	0	0	612
4	0	0	0	0	365
5	0	0	0	0	611
6	0	0	0	0	366
7	0	0	0	0	616
8	0	0	0	0	369
9	0	0	0	0	613
10	0	0	0	0	370
11	0	0	0	0	617
12	0	0	0	0	360
13	0	0	0	0	619
14	0	0	0	0	354
15	0	0	0	0	615
0	0	0	0	0	368
1	0	0	0	0	609
2	0	0	0	0	371
3	0	0	0	0	612
4	0	0	0	0	374
5	0	0	0	0	621
6	0	0	0	0	366
7	0	0	0	0	609
8	0	0	0	0	364
9	0	0	0	0	614
10	0	0	0	0	366
11	0	0	0	0	609
12	0	0	0	0	365
13	0	0	0	0	610
14	0	0	0	0	370
15	0	0	0	0	612
0	0	0	0	0	372
1	0	0	0	0	612
2	0	0	0	0	370
3	0	0	0	0	617
4	0	0	0	0	368
5	0	0	0	0	620
6	0	0	0	0	365
7	0	0	0	0	612
8	0	0	0	0	360
9	0	0	0	0	615
10	0	0	0	0	369
11	0	0	0	0	611
12	0	0	0	0	356
13	0	0	0	0	618
14	0	0	0	0	360
15	0	0	0	0	616
0	0	0	0	0	364
1	0	0	0	0	617
2	0	0	0	0	365
3	0	0	0	0	618
4	0	0	0	0	364
5	0	0	0	0	613
6	0	0	0	0	362
7	0	0	0	0	619
8	0	0	0	0	361
9	0	0	0	0	620
10	0	0	0	0	364
11	0	0	0	0	624
12	0	0	0	0	363
13	0	0	0	0	621
14	0	0	0	0	361
15	0	0	0	0	616
0	0	0	0	0	360
1	0	0	0	0	623
2	0	0	0	0	355
3	0	0	0	0	619
4	0	0	0	0	365
5	0	0	0	0	613
6	0	0	0	0	366
7	0	0	0	0	619
8	0	0	0	0	359
9	0	0	0	0	615
10	0	0	0	0	359
11	0	0	0	0	625
12	0	0	0	0	354
13	0	0	0	0	618
14	0	0	0	0	359
15	0	0	0	0	617
0	0	0	0	0	359
1	0	0	0	0	622
2	0	0	0	0	360
3	0	0	0	0	628
4	0	0	0	0	354
5	0	0	0	0	621
6	0	0	0	0	362
7	0	0	0	0	619
8	0	0	0	0	360
9	0	0	0	0	617
10	0	0	0	0	363
11	0	0	0	0	617
12	0	0	0	0	358
13	0	0	0	0	621
14	0	0	0	0	355
15	0	0	0	0	614
0	0	0	0	0	354
1	0	0	0	0	615
2	0	0	0	0	361
3	0	0	0	0	617
4	0	0	0	0	360
5	0	0	0	0	617
6	0	0	0	0	357
7	0	0	0	0	621
8	0	0	0	0	361
9	0	0	0	0	613
10	0	0	0	0	359
11	0	0	0	0	620
12	0	0	0	0	358
13	0	0	0	0	623
14	0	0	0	0	367
15	0	0	0	0	620
0	0	0	0	0	357
1	0	0	0	0	620
2	0	0	0	0	366
3	0	0	0	0	618
4	0	0	0	0	368
5	0	0	0	0	621
6	0	0	0	0	359
7	0	0	0	0	619
8	0	0	0	0	365
9	0	0	0	0	619
10	0	0	0	0	354
11	0	0	0	0	613
12	0	0	0	0	358
13	0	0	0	0	615
14	0	0	0	0	362
15	0	0	0	0	619
0	0	0	0	0	363
1	0	0	0	0	609
2	0	0	0	0	368
3	0	0	0	0	612
4	0	0	0	0	368
5	0	0	0	0	617
6	0	0	0	0	372
7	0	0	0	0	619
8	0	0	0	0	364
9	0	0	0	0	622
10	0	0	0	0	355
11	0	0	0	0	617
12	0	0	0	0	369
13	0	0	0	0	612
14	0	0	0	0	365
15	0	0	0	0	614
0	0	0	0	0	360
1	0	0	0	0	618
2	0	0	0	0	362
3	0	0	0	0	620
4	0	0	0	0	361
5	0	0	0	0	617
6	0	0	0	0	365
7	0	0	0	0	618
8	0	0	0	0	359
9	0	0	0	0	618
10	0	0	0	0	360
11	0	0	0	0	617
12	0	0	0	0	363
13	0	0	0	0	624
14	0	0	0	0	354
15	0	0	0	0	621
0	0	0	0	0	350
1	0	0	0	0	623
2	0	0	0	0	354
3	0	0	0	0	625
4	0	0	0	0	347
5	0	0	0	0	618
6	0	0	0	0	354
7	0	0	0	0	628
8	0	0	0	0	352
9	0	0	0	0	623
10	0	0	0	0	357
11	0	0	0	0	631
12	0	0	0	0	353
13	0	0	0	0	617
14	0	0	0	0	354
15	0	0	0	0	622
0	0	0	0	0	352
1	0	0	0	0	623
2	0	0	0	0	352
3	0	0	0	0	624
4	0	0	0	0	352
5	0	0	0	0	620
6	0	0	0	0	356
7	0	0	0	0	626
8	0	0	0	0	346
9	0	0	0	0	627
10	0	0	0	0	357
11	0	0	0	0	623
12	0	0	0	0	353
13	0	0	0	0	629
14	0	0	0	0	356
15	0	0	0	0	626
0	0	0	0	0	356
1	0	0	0	0	617
2	0	0	0	0	356
3	0	0	0	0	618
4	0	0	0	0	351
5	0	0	0	0	624
6	0	0	0	0	356
7	0	0	0	0	628
8	0	0	0	0	352
9	0	0	0	0	616
10	0	0	0	0	350
11	0	0	0	0	622
12	0	0	0	0	351
13	0	0	0	0	627
14	0	0	0	0	357
15	0	0	0	0	624
0	0	0	0	0	345
1	0	0	0	0	625
2	0	0	0	0	356
3	0	0	0	0	620
4	0	0	0	0	360
5	0	0	0	0	622
6	0	0	0	0	354
7	0	0	0	0	619
8	0	0	0	0	351
9	0	0	0	0	624
10	0	0	0	0	352
11	0	0	0	0	626
12	0	0	0	0	350
13	0	0	0	0	626
14	0	0	0	0	354
15	0	0	0	0	624
0	0	0	0	0	356
1	0	0	0	0	617
2	0	0	0	0	350
3	0	0	0	0	632
4	0	0	0	0	354
5	0	0	0	0	621
6	0	0	0	0	353
7	0	0	0	0	625
8	0	0	0	0	356
9	0	0	0	0	620
10	0	0	0	0	342
11	0	0	0	0	629
12	0	0	0	0	342
13	0	0	0	0	623
14	0	0	0	0	349
15	0	0	0	0	620
0	0	0	0	0	350
1	0	0	0	0	633
2	0	0	0	0	356
3	0	0	0	0	622
4	0	0	0	0	353
5	0	0	0	0	621
6	0	0	0	0	344
7	0	0	0	0	622
8	0	0	0	0	351
9	0	0	0	0	628
10	0	0	0	0	357
11	0	0	0	0	627
12	0	0	0	0	350
13	0	0	0	0	624
14	0	0	0	0	348
15	0	0	0	0	622
0	0	0	0	0	347
1	0	0	0	0	623
2	0	0	0	0	349
3	0	0	0	0	625
4	0	0	0	0	349
5	0	0	0	0	626
6	0	0	0	0	346
7	0	0	0	0	620
8	0	0	0	0	350
9	0	0	0	0	628
10	0	0	0	0	354
11	0	0	0	0	621
12	0	0	0	0	353
13	0	0	0	0	620
14	0	0	0	0	352
15	0	0	0	0	626
0	0	0	0	0	351
1	0	0	0	0	620
2	0	0	0	0	352
3	0	0	0	0	631
4	0	0	0	0	343
5	0	0	0	0	631
6	0	0	0	0	351
7	0	0	0	0	631
8	0	0	0	0	353
9	0	0	0	0	624
10	0	0	0	0	348
11	0	0	0	0	626
12	0	0	0	0	347
13	0	0	0	0	628
14	0	0	0	0	355
15	0	0	0	0	624
0	0	0	0	0	346
1	0	0	0	0	622
2	0	0	0	0	351
3	0	0	0	0	623
4	0	0	0	0	353
5	0	0	0	0	624
6	0	0	0	0	356
7	0	0	0	0	624
8	0	0	0	0	355
9	0	0	0	0	631
10	0	0	0	0	346
11	0	0	0	0	631
12	0	0	0	0	356
13	0	0	0	0	627
14	0	0	0	0	353
15	0	0	0	0	623
0	0	0	0	0	355
1	0	0	0	0	630
2	0	0	0	0	353
3	0	0	0	0	628
4	0	0	0	0	355
5	0	0	0	0	624
6	0	0	0	0	342
7	0	0	0	0	622
8	0	0	0	0	352
9	0	0	0	0	631
10	0	0	0	0	350
11	0	0	0	0	630
12	0	0	0	0	347
13	0	0	0	0	624
14	0	0	0	0	351
15	0	0	0	0	622
0	0	0	0	0	349
1	0	0	0	0	625
2	0	0	0	0	353
3	0	0	0	0	630
4	0	0	0	0	348
5	0	0	0	0	623
6	0	0	0	0	346
7	0	0	0	0	632
8	0	0	0	0	354
9	0	0	0	0	629
10	0	0	0	0	349
11	0	0	0	0	621
12	0	0	0	0	352
13	0	0	0	0	627
14	0	0	0	0	350
15	0	0	0	0	631
0	0	0	0	0	351
1	0	0	0	0	627
2	0	0	0	0	352
3	0	0	0	0	625
4	0	0	0	0	350
5	0	0	0	0	626
6	0	0	0	0	348
7	0	0	0	0	627
8	0	0	0	0	352
9	0	0	0	0	636
10	0	0	0	0	354
11	0	0	0	0	622
12	0	0	0	0	344
13	0	0	0	0	628
14	0	0	0	0	351
15	0	0	0	0	624
0	0	0	0	0	352
1	0	0	0	0	623
2	0	0	0	0	351
3	0	0	0	0	626
4	0	0	0	0	344
5	0	0	0	0	625
6	0	0	0	0	352
7	0	0	0	0	631
8	0	0	0	0	343
9	0	0	0	0	630
10	0	0	0	0	350
11	0	0	0	0	618
12	0	0	0	0	348
13	0	0	0	0	628
14	0	0	0	0	348
15	0	0	0	0	627
0	0	0	0	0	349
1	0	0	0	0	624
2	0	0	0	0	346
3	0	0	0	0	623
4	0	0	0	0	357
5	0	0	0	0	624
6	0	0	0	0	360
7	0	0	0	0	618
8	0	0	0	0	354
9	0	0	0	0	623
10	0	0	0	0	352
11	0	0	0	0	626
12	0	0	0	0	353
13	0	0	0	0	629
14	0	0	0	0	356
15	0	0	0	0	623
0	0	0	0	0	352
1	0	0	0	0	623
2	0	0	0	0	348
3	0	0	0	0	622
4	0	0	0	0	342
5	0	0	0	0	624
6	0	0	0	0	346
7	0	0	0	0	626
8	0	0	0	0	352
9	0	0	0	0	625
10	0	0	0	0	348
11	0	0	0	0	630
12	0	0	0	0	355
13	0	0	0	0	627
14	0	0	0	0	351
15	0	0	0	0	625
0	0	0	0	0	355
1	0	0	0	0	630
2	0	0	0	0	356
3	0	0	0	0	624
4	0	0	0	0	348
5	0	0	0	0	624
6	0	0	0	0	349
7	0	0	0	0	628
8	0	0	0	0	360
9	0	0	0	0	628
10	0	0	0	0	353
11	0	0	0	0	624
12	0	0	0	0	349
13	0	0	0	0	631
14	0	0	0	0	348
15	0	0	0	0	623
0	0	0	0	0	353
1	0	0	0	0	624
2	0	0	0	0	353
3	0	0	0	0	624
4	0	0	0	0	348
5	0	0	0	0	631
6	0	0	0	0	349
7	0	0	0	0	621
8	0	0	0	0	350
9	0	0	0	0	622
10	0	0	0	0	352
11	0	0	0	0	628
12	0	0	0	0	356
13	0	0	0	0	629
14	0	0	0	0	361
15	0	0	0	0	624
0	0	0	0	0	357
1	0	0	0	0	628
2	0	0	0	0	351
3	0	0	0	0	625
4	0	0	0	0	351
5	0	0	0	0	622
6	0	0	0	0	356
7	0	0	0	0	617
8	0	0	0	0	351
9	0	0	0	0	621
10	0	0	0	0	355
11	0	0	0	0	621
12	0	0	0	0	353
13	0	0	0	0	620
14	0	0	0	0	350
15	0	0	0	0	623
0	0	0	0	0	349
1	0	0	0	0	620
2	0	0	0	0	357
3	0	0	0	0	626
4	0	0	0	0	352
5	0	0	0	0	624
6	0	0	0	0	352
7	0	0	0	0	617
8	0	0	0	0	353
9	0	0	0	0	624
10	0	0	0	0	353
11	0	0	0	0	625
12	0	0	0	0	354
13	0	0	0	0	625
14	0	0	0	0	354
15	0	0	0	0	621
0	0	0	0	0	353
1	0	0	0	0	623
2	0	0	0	0	357
3	0	0	0	0	628
4	0	0	0	0	352
5	0	0	0	0	617
6	0	0	0	0	349
7	0	0	0	0	627
8	0	0	0	0	353
9	0	0	0	0	621
10	0	0	0	0	351
11	0	0	0	0	629
12	0	0	0	0	353
13	0	0	0	0	629
14	0	0	0	0	356
15	0	0	0	0	619
0	0	0	0	0	354
1	0	0	0	0	620
2	0	0	0	0	359
3	0	0	0	0	620
4	0	0	0	0	352
5	0	0	0	0	622
6	0	0	0	0	355
7	0	0	0	0	623
8	0	0	0	0	354
9	0	0	0	0	624
10	0	0	0	0	355
11	0	0	0	0	627
12	0	0	0	0	351
13	0	0	0	0	620
14	0	0	0	0	357
15	0	0	0	0	622
0	0	0	0	0	352
1	0	0	0	0	623
2	0	0	0	0	353
3	0	0	0	0	624
4	0	0	0	0	353
5	0	0	0	0	622
6	0	0	0	0	349
7	0	0	0	0	623
8	0	0	0	0	349
9	0	0	0	0	621
10	0	0	0	0	352
11	0	0	0	0	628
12	0	0	0	0	353
13	0	0	0	0	629
14	0	0	0	0	354
15	0	0	0	0	627
0	0	0	0	0	356
1	0	0	0	0	617
2	0	0	0	0	361
3	0	0	0	0	621
4	0	0	0	0	359
5	0	0	0	0	627
6	0	0	0	0	353
7	0	0	0	0	621
8	0	0	0	0	357
9	0	0	0	0	622
10	0	0	0	0	356
11	0	0	0	0	621
12	0	0	0	0	353
13	0	0	0	0	620
14	0	0	0	0	356
15	0	0	0	0	625
0	0	0	0	0	357
1	0	0	0	0	627
2	0	0	0	0	356
3	0	0	0	0	619
4	0	0	0	0	353
5	0	0	0	0	624
6	0	0	0	0	357
7	0	0	0	0	622
8	0	0	0	0	354
9	0	0	0	0	615
10	0	0	0	0	358
11	0	0	0	0	618
12	0	0	0	0	353
13	0	0	0	0	623
14	0	0	0	0	358
15	0	0	0	0	625
0	0	0	0	0	349
1	0	0	0	0	614
2	0	0	0	0	353
3	0	0	0	0	620
4	0	0	0	0	351
5	0	0	0	0	621
6	0	0	0	0	354
7	0	0	0	0	617
8	0	0	0	0	356
9	0	0	0	0	624
10	0	0	0	0	354
11	0	0	0	0	627
12	0	0	0	0	352
13	0	0	0	0	617
14	0	0	0	0	358
15	0	0	0	0	617
0	0	0	0	0	356
1	0	0	0	0	619
2	0	0	0	0	352
3	0	0	0	0	626
4	0	0	0	0	345
5	0	0	0	0	620
6	0	0	0	0	356
7	0	0	0	0	622
8	0	0	0	0	354
9	0	0	0	0	625
10	0	0	0	0	352
11	0	0	0	0	617
12	0	0	0	0	361
13	0	0	0	0	616
14	0	0	0	0	353
15	0	0	0	0	624
0	0	0	0	0	358
1	0	0	0	0	616
2	0	0	0	0	360
3	0	0	0	0	617
4	0	0	0	0	357
5	0	0	0	0	627
6	0	0	0	0	357
7	0	0	0	0	618
8	0	0	0	0	356
9	0	0	0	0	617
10	0	0	0	0	354
11	0	0	0	0	624
12	0	0	0	0	357
13	0	0	0	0	618
14	0	0	0	0	361
15	0	0	0	0	618
0	0	0	0	0	351
1	0	0	0	0	625
2	0	0	0	0	356
3	0	0	0	0	621
4	0	0	0	0	356
5	0	0	0	0	624
6	0	0	0	0	361
7	0	0	0	0	621
8	0	0	0	0	355
9	0	0	0	0	624
10	0	0	0	0	353
11	0	0	0	0	625
12	0	0	0	0	352
13	0	0	0	0	616
14	0	0	0	0	362
15	0	0	0	0	619
0	0	0	0	0	360
1	0	0	0	0	627
2	0	0	0	0	350
3	0	0	0	0	619
4	0	0	0	0	354
5	0	0	0	0	626
6	0	0	0	0	353
7	0	0	0	0	627
8	0	0	0	0	356
9	0	0	0	0	626
10	0	0	0	0	359
11	0	0	0	0	620
12	0	0	0	0	356
13	0	0	0	0	621
14	0	0	0	0	355
15	0	0	0	0	629
0	0	0	0	0	352
1	0	0	0	0	621
2	0	0	0	0	355
3	0	0	0	0	621
4	0	0	0	0	354
5	0	0	0	0	621
6	0	0	0	0	353
7	0	0	0	0	621
8	0	0	0	0	348
9	0	0	0	0	627
10	0	0	0	0	351
11	0	0	0	0	628
12	0	0	0	0	353
13	0	0	0	0	626
14	0	0	0	0	352
15	0	0	0	0	628
0	0	0	0	0	347
1	0	0	0	0	618
2	0	0	0	0	348
3	0	0	0	0	625
4	0	0	0	0	360
5	0	0	0	0	621
6	0	0	0	0	355
7	0	0	0	0	629
8	0	0	0	0	357
9	0	0	0	0	621
10	0	0	0	0	354
11	0	0	0	0	625
12	0	0	0	0	356
13	0	0	0	0	624
14	0	0	0	0	352
15	0	0	0	0	628
0	0	0	0	0	353
1	0	0	0	0	625
2	0	0	0	0	352
3	0	0	0	0	632
4	0	0	0	0	356
5	0	0	0	0	627
6	0	0	0	0	356
7	0	0	0	0	631
8	0	0	0	0	355
9	0	0	0	0	631
10	0	0	0	0	350
11	0	0	0	0	623
12	0	0	0	0	348
13	0	0	0	0	631
14	0	0	0	0	351
15	0	0	0	0	622
0	0	0	0	0	352
1	0	0	0	0	629
2	0	0	0	0	351
3	0	0	0	0	622
4	0	0	0	0	348
5	0	0	0	0	631
6	0	0	0	0	351
7	0	0	0	0	627
8	0	0	0	0	351
9	0	0	0	0	627
10	0	0	0	0	346
11	0	0	0	0	630
12	0	0	0	0	347
13	0	0	0	0	623
14	0	0	0	0	354
15	0	0	0	0	622
0	0	0	0	0	350
1	0	0	0	0	625
2	0	0	0	0	353
3	0	0	0	0	628
4	0	0	0	0	357
5	0	0	0	0	633
6	0	0	0	0	349
7	0	0	0	0	629
8	0	0	0	0	354
9	0	0	0	0	629
10	0	0	0	0	356
11	0	0	0	0	625
12	0	0	0	0	346
13	0	0	0	0	629
14	0	0	0	0	343
15	0	0	0	0	625
0	0	0	0	0	352
1	0	0	0	0	625
2	0	0	0	0	352
3	0	0	0	0	621
4	0	0	0	0	346
5	0	0	0	0	623
6	0	0	0	0	342
7	0	0	0	0	624
8	0	0	0	0	345
9	0	0	0	0	626
10	0	0	0	0	351
11	0	0	0	0	625
12	0	0	0	0	360
13	0	0	0	0	620
14	0	0	0	0	351
15	0	0	0	0	630
0	0	0	0	0	346
1	0	0	0	0	625
2	0	0	0	0	353
3	0	0	0	0	623
4	0	0	0	0	347
5	0	0	0	0	631
6	0	0	0	0	355
7	0	0	0	0	624
8	0	0	0	0	346
9	0	0	0	0	628
10	0	0	0	0	353
11	0	0	0	0	625
12	0	0	0	0	343
13	0	0	0	0	632
14	0	0	0	0	353
15	0	0	0	0	632
0	0	0	0	0	343
1	0	0	0	0	628
2	0	0	0	0	345
3	0	0	0	0	624
4	0	0	0	0	352
5	0	0	0	0	628
6	0	0	0	0	355
7	0	0	0	0	624
8	0	0	0	0	347
9	0	0	0	0	626
10	0	0	0	0	346
11	0	0	0	0	624
12	0	0	0	0	344
13	0	0	0	0	629
14	0	0	0	0	346
15	0	0	0	0	634
0	0	0	0	0	352
1	0	0	0	0	621
2	0	0	0	0	344
3	0	0	0	0	628
4	0	0	0	0	355
5	0	0	0	0	621
6	0	0	0	0	348
7	0	0	0	0	630
8	0	0	0	0	343
9	0	0	0	0	623
10	0	0	0	0	343
11	0	0	0	0	633
12	0	0	0	0	352
13	0	0	0	0	622
14	0	0	0	0	352
15	0	0	0	0	632
0	0	0	0	0	344
1	0	0	0	0	632
2	0	0	0	0	355
3	0	0	0	0	627
4	0	0	0	0	354
5	0	0	0	0	621
6	0	0	0	0	344
7	0	0	0	0	631
8	0	0	0	0	338
9	0	0	0	0	628
10	0	0	0	0	352
11	0	0	0	0	631
12	0	0	0	0	347
13	0	0	0	0	628
14	0	0	0	0	340
15	0	0	0	0	630
0	0	0	0	0	346
1	0	0	0	0	631
2	0	0	0	0	353
3	0	0	0	0	632
4	0	0	0	0	349
5	0	0	0	0	633
6	0	0	0	0	340
7	0	0	0	0	632
8	0	0	0	0	346
9	0	0	0	0	626
10	0	0	0	0	339
11	0	0	0	0	632
12	0	0	0	0	348
13	0	0	0	0	628
14	0	0	0	0	339
15	0	0	0	0	626
0	0	0	0	0	337
1	0	0	0	0	628
2	0	0	0	0	346
3	0	0	0	0	625
4	0	0	0	0	348
5	0	0	0	0	623
6	0	0	0	0	343
7	0	0	0	0	630
8	0	0	0	0	350
9	0	0	0	0	632
10	0	0	0	0	346
11	0	0	0	0	626
12	0	0	0	0	340
13	0	0	0	0	637
14	0	0	0	0	342
15	0	0	0	0	630
0	0	0	0	0	340
1	0	0	0	0	628
2	0	0	0	0	348
3	0	0	0	0	630
4	0	0	0	0	346
5	0	0	0	0	627
6	0	0	0	0	344
7	0	0	0	0	629
8	0	0	0	0	342
9	0	0	0	0	632
10	0	0	0	0	337
11	0	0	0	0	620
12	0	0	0	0	346
13	0	0	0	0	630
14	0	0	0	0	344
15	0	0	0	0	629
0	0	0	0	0	349
1	0	0	0	0	636
2	0	0	0	0	345
3	0	0	0	0	636
4	0	0	0	0	346
5	0	0	0	0	625
6	0	0	0	0	346
7	0	0	0	0	626
8	0	0	0	0	339
9	0	0	0	0	633
10	0	0	0	0	346
11	0	0	0	0	619
12	0	0	0	0	344
13	0	0	0	0	625
14	0	0	0	0	343
15	0	0	0	0	627
0	0	0	0	0	347
1	0	0	0	0	635
2	0	0	0	0	339
3	0	0	0	0	624
4	0	0	0	0	338
5	0	0	0	0	630
6	0	0	0	0	339
7	0	0	0	0	631
8	0	0	0	0	345
9	0	0	0	0	635
10	0	0	0	0	344
11	0	0	0	0	630
12	0	0	0	0	354
13	0	0	0	0	634
14	0	0	0	0	340
15	0	0	0	0	623
0	0	0	0	0	350
1	0	0	0	0	630
2	0	0	0	0	339
3	0	0	0	0	635
4	0	0	0	0	340
5	0	0	0	0	626
6	0	0	0	0	343
7	0	0	0	0	634
8	0	0	0	0	348
9	0	0	0	0	628
10	0	0	0	0	339
11	0	0	0	0	628
12	0	0	0	0	338
13	0	0	0	0	635
14	0	0	0	0	345
15	0	0	0	0	632
0	0	0	0	0	344
1	0	0	0	0	628
2	0	0	0	0	345
3	0	0	0	0	630
4	0	0	0	0	349
5	0	0	0	0	627
6	0	0	0	0	344
7	0	0	0	0	633
8	0	0	0	0	337
9	0	0	0	0	630
10	0	0	0	0	337
11	0	0	0	0	629
12	0	0	0	0	346
13	0	0	0	0	625
14	0	0	0	0	345
15	0	0	0	0	632
0	0	0	0	0	343
1	0	0	0	0	636
2	0	0	0	0	347
3	0	0	0	0	632
4	0	0	0	0	342
5	0	0	0	0	632
6	0	0	0	0	340
7	0	0	0	0	629
8	0	0	0	0	344
9	0	0	0	0	629
10	0	0	0	0	344
11	0	0	0	0	632
12	0	0	0	0	346
13	0	0	0	0	633
14	0	0	0	0	344
15	0	0	0	0	638
0	0	0	0	0	340
1	0	0	0	0	626
2	0	0	0	0	349
3	0	0	0	0	633
4	0	0	0	0	340
5	0	0	0	0	627
6	0	0	0	0	336
7	0	0	0	0	630
8	0	0	0	0	346
9	0	0	0	0	634
10	0	0	0	0	349
11	0	0	0	0	629
12	0	0	0	0	341
13	0	0	0	0	630
14	0	0	0	0	339
15	0	0	0	0	634
0	0	0	0	0	346
1	0	0	0	0	632
2	0	0	0	0	343
3	0	0	0	0	639
4	0	0	0	0	337
5	0	0	0	0	629
6	0	0	0	0	346
7	0	0	0	0	620
8	0	0	0	0	339
9	0	0	0	0	624
10	0	0	0	0	348
11	0	0	0	0	631
12	0	0	0	0	338
13	0	0	0	0	638
14	0	0	0	0	354
15	0	0	0	0	632
0	0	0	0	0	349
1	0	0	0	0	629
2	0	0	0	0	344
3	0	0	0	0	630
4	0	0	0	0	346
5	0	0	0	0	640
6	0	0	0	0	335
7	0	0	0	0	626
8	0	0	0	0	334
9	0	0	0	0	627
10	0	0	0	0	342
11	0	0	0	0	628
12	0	0	0	0	338
13	0	0	0	0	629
14	0	0	0	0	348
15	0	0	0	0	632
0	0	0	0	0	340
1	0	0	0	0	634
2	0	0	0	0	345
3	0	0	0	0	629
4	0	0	0	0	343
5	0	0	0	0	626
6	0	0	0	0	342
7	0	0	0	0	625
8	0	0	0	0	342
9	0	0	0	0	631
10	0	0	0	0	337
11	0	0	0	0	631
12	0	0	0	0	344
13	0	0	0	0	632
14	0	0	0	0	345
15	0	0	0	0	624
0	0	0	0	0	349
1	0	0	0	0	625
2	0	0	0	0	336
3	0	0	0	0	626
4	0	0	0	0	340
5	0	0	0	0	630
6	0	0	0	0	348
7	0	0	0	0	622
8	0	0	0	0	340
9	0	0	0	0	625
10	0	0	0	0	340
11	0	0	0	0	631
12	0	0	0	0	337
13	0	0	0	0	634
14	0	0	0	0	346
15	0	0	0	0	624
0	0	0	0	0	347
1	0	0	0	0	634
2	0	0	0	0	349
3	0	0	0	0	624
4	0	0	0	0	343
5	0	0	0	0	626
6	0	0	0	0	344
7	0	0	0	0	629
8	0	0	0	0	343
9	0	0	0	0	625
10	0	0	0	0	344
11	0	0	0	0	634
12	0	0	0	0	342
13	0	0	0	0	629
14	0	0	0	0	334
15	0	0	0	0	624
0	0	0	0	0	347
1	0	0	0	0	629
2	0	0	0	0	344
3	0	0	0	0	631
4	0	0	0	0	344
5	0	0	0	0	631
6	0	0	0	0	354
7	0	0	0	0	634
8	0	0	0	0	337
9	0	0	0	0	628
10	0	0	0	0	341
11	0	0	0	0	632
12	0	0	0	0	337
13	0	0	0	0	623
14	0	0	0	0	344
15	0	0	0	0	630
0	0	0	0	0	341
1	0	0	0	0	629
2	0	0	0	0	349
3	0	0	0	0	629
4	0	0	0	0	343
5	0	0	0	0	630
6	0	0	0	0	344
7	0	0	0	0	632
8	0	0	0	0	344
9	0	0	0	0	629
10	0	0	0	0	345
11	0	0	0	0	632
12	0	0	0	0	334
13	0	0	0	0	634
14	0	0	0	0	350
15	0	0	0	0	630
0	0	0	0	0	340
1	0	0	0	0	633
2	0	0	0	0	344
3	0	0	0	0	624
4	0	0	0	0	348
5	0	0	0	0	628
6	0	0	0	0	345
7	0	0	0	0	636
8	0	0	0	0	344
9	0	0	0	0	625
10	0	0	0	0	338
11	0	0	0	0	632
12	0	0	0	0	347
13	0	0	0	0	631
14	0	0	0	0	336
15	0	0	0	0	631
0	0	0	0	0	340
1	0	0	0	0	635
2	0	0	0	0	344
3	0	0	0	0	630
4	0	0	0	0	335
5	0	0	0	0	631
6	0	0	0	0	348
7	0	0	0	0	621
8	0	0	0	0	340
9	0	0	0	0	629
10	0	0	0	0	343
11	0	0	0	0	626
12	0	0	0	0	340
13	0	0	0	0	626
14	0	0	0	0	342
15	0	0	0	0	628
0	0	0	0	0	339
1	0	0	0	0	630
2	0	0	0	0	336
3	0	0	0	0	636
4	0	0	0	0	340
5	0	0	0	0	632
6	0	0	0	0	347
7	0	0	0	0	624
8	0	0	0	0	337
9	0	0	0	0	634
10	0	0	0	0	343
11	0	0	0	0	629
12	0	0	0	0	343
13	0	0	0	0	629
14	0	0	0	0	342
15	0	0	0	0	628
0	0	0	0	0	341
1	0	0	0	0	635
2	0	0	0	0	339
3	0	0	0	0	632
4	0	0	0	0	335
5	0	0	0	0	635
6	0	0	0	0	343
7	0	0	0	0	630
8	0	0	0	0	342
9	0	0	0	0	631
10	0	0	0	0	346
11	0	0	0	0	633
12	0	0	0	0	340
13	0	0	0	0	630
14	0	0	0	0	340
15	0	0	0	0	633
0	0	0	0	0	340
1	0	0	0	0	633
2	0	0	0	0	343
3	0	0	0	0	625
4	0	0	0	0	336
5	0	0	0	0	628
6	0	0	0	0	347
7	0	0	0	0	632
8	0	0	0	0	335
9	0	0	0	0	636
10	0	0	0	0	348
11	0	0	0	0	629
12	0	0	0	0	337
13	0	0	0	0	624
14	0	0	0	0	338
15	0	0	0	0	628
0	0	0	0	0	341
1	0	0	0	0	631
2	0	0	0	0	340
3	0	0	0	0	630
4	0	0	0	0	339
5	0	0	0	0	630
6	0	0	0	0	342
7	0	0	0	0	635
8	0	0	0	0	347
9	0	0	0	0	628
10	0	0	0	0	340
11	0	0	0	0	629
12	0	0	0	0	338
13	0	0	0	0	625
14	0	0	0	0	343
15	0	0	0	0	628
0	0	0	0	0	344
1	0	0	0	0	633
2	0	0	0	0	343
3	0	0	0	0	629
4	0	0	0	0	346
5	0	0	0	0	627
6	0	0	0	0	341
7	0	0	0	0	628
8	0	0	0	0	342
9	0	0	0	0	630
10	0	0	0	0	344
11	0	0	0	0	628
12	0	0	0	0	346
13	0	0	0	0	632
14	0	0	0	0	349
15	0	0	0	0	624
0	0	0	0	0	336
1	0	0	0	0	631
2	0	0	0	0	343
3	0	0	0	0	634
4	0	0	0	0	346
5	0	0	0	0	628
6	0	0	0	0	336
7	0	0	0	0	633
8	0	0	0	0	339
9	0	0	0	0	624
10	0	0	0	0	340
11	0	0	0	0	632
12	0	0	0	0	349
13	0	0	0	0	624
14	0	0	0	0	344
15	0	0	0	0	628
0	0	0	0	0	338
1	0	0	0	0	628
2	0	0	0	0	336
3	0	0	0	0	633
4	0	0	0	0	335
5	0	0	0	0	627
6	0	0	0	0	335
7	0	0	0	0	627
8	0	0	0	0	344
9	0	0	0	0	635
10	0	0	0	0	336
11	0	0	0	0	633
12	0	0	0	0	340
13	0	0	0	0	628
14	0	0	0	0	339
15	0	0	0	0	621
0	0	0	0	0	346
1	0	0	0	0	629
2	0	0	0	0	339
3	0	0	0	0	633
4	0	0	0	0	340
5	0	0	0	0	637
6	0	0	0	0	344
7	0	0	0	0	624
8	0	0	0	0	349
9	0	0	0	0	625
10	0	0	0	0	346
11	0	0	0	0	624
12	0	0	0	0	350
13	0	0	0	0	631
14	0	0	0	0	343
15	0	0	0	0	626
0	0	0	0	0	340
1	0	0	0	0	632
2	0	0	0	0	345
3	0	0	0	0	627
4	0	0	0	0	341
5	0	0	0	0	626
6	0	0	0	0	346
7	0	0	0	0	633
8	0	0	0	0	338
9	0	0	0	0	626
10	0	0	0	0	349
11	0	0	0	0	624
12	0	0	0	0	338
13	0	0	0	0	628
14	0	0	0	0	337
15	0	0	0	0	628
0	0	0	0	0	340
1	0	0	0	0	632
2	0	0	0	0	347
3	0	0	0	0	631
4	0	0	0	0	348
5	0	0	0	0	634
6	0	0	0	0	337
7	0	0	0	0	626
8	0	0	0	0	337
9	0	0	0	0	637
10	0	0	0	0	341
11	0	0	0	0	633
12	0	0	0	0	344
13	0	0	0	0	632
14	0	0	0	0	345
15	0	0	0	0	628
0	0	0	0	0	337
1	0	0	0	0	628
2	0	0	0	0	346
3	0	0	0	0	635
4	0	0	0	0	348
5	0	0	0	0	625
6	0	0	0	0	340
7	0	0	0	0	631
8	0	0	0	0	340
9	0	0	0	0	627
10	0	0	0	0	338
11	0	0	0	0	624
12	0	0	0	0	343
13	0	0	0	0	630
14	0	0	0	0	339
15	0	0	0	0	632
0	0	0	0	0	343
1	0	0	0	0	636
2	0	0	0	0	345
3	0	0	0	0	626
4	0	0	0	0	346
5	0	0	0	0	627
6	0	0	0	0	342
7	0	0	0	0	633
8	0	0	0	0	331
9	0	0	0	0	632
10	0	0	0	0	346
11	0	0	0	0	626
12	0	0	0	0	343
13	0	0	0	0	622
14	0	0	0	0	337
15	0	0	0	0	625
0	0	0	0	0	342
1	0	0	0	0	631
2	0	0	0	0	342
3	0	0	0	0	624
4	0	0	0	0	345
5	0	0	0	0	630
6	0	0	0	0	344
7	0	0	0	0	627
8	0	0	0	0	343
9	0	0	0	0	631
10	0	0	0	0	341
11	0	0	0	0	631
12	0	0	0	0	348
13	0	0	0	0	628
14	0	0	0	0	341
15	0	0	0	0	627
0	0	0	0	0	351
1	0	0	0	0	627
2	0	0	0	0	336
3	0	0	0	0	626
4	0	0	0	0	343
5	0	0	0	0	641
6	0	0	0	0	345
7	0	0	0	0	631
8	0	0	0	0	341
9	0	0	0	0	631
10	0	0	0	0	338
11	0	0	0	0	628
12	0	0	0	0	340
13	0	0	0	0	634
14	0	0	0	0	343
15	0	0	0	0	634
0	0	0	0	0	345
1	0	0	0	0	629
2	0	0	0	0	343
3	0	0	0	0	630
4	0	0	0	0	340
5	0	0	0	0	629
6	0	0	0	0	341
7	0	0	0	0	632
8	0	0	0	0	340
9	0	0	0	0	631
10	0	0	0	0	338
11	0	0	0	0	629
12	0	0	0	0	343
13	0	0	0	0	625
14	0	0	0	0	341
15	0	0	0	0	628
0	0	0	0	0	340
1	0	0	0	0	633
2	0	0	0	0	346
3	0	0	0	0	635
4	0	0	0	0	339
5	0	0	0	0	629
6	0	0	0	0	349
7	0	0	0	0	624
8	0	0	0	0	344
9	0	0	0	0	631
10	0	0	0	0	334
11	0	0	0	0	628
12	0	0	0	0	340
13	0	0	0	0	637
14	0	0	0	0	343
15	0	0	0	0	629
0	0	0	0	0	342
1	0	0	0	0	633
2	0	0	0	0	339
3	0	0	0	0	634
4	0	0	0	0	337
5	0	0	0	0	629
6	0	0	0	0	336
7	0	0	0	0	632
8	0	0	0	0	344
9	0	0	0	0	628
10	0	0	0	0	340
11	0	0	0	0	622
12	0	0	0	0	341
13	0	0	0	0	626
14	0	0	0	0	337
15	0	0	0	0	632
0	0	0	0	0	340
1	0	0	0	0	630
2	0	0	0	0	330
3	0	0	0	0	629
4	0	0	0	0	343
5	0	0	0	0	620
6	0	0	0	0	340
7	0	0	0	0	629
8	0	0	0	0	342
9	0	0	0	0	624
10	0	0	0	0	337
11	0	0	0	0	626
12	0	0	0	0	348
13	0	0	0	0	628
14	0	0	0	0	344
15	0	0	0	0	631
0	0	0	0	0	342
1	0	0	0	0	631
2	0	0	0	0	340
3	0	0	0	0	625
4	0	0	0	0	338
5	0	0	0	0	625
6	0	0	0	0	343
7	0	0	0	0	623
8	0	0	0	0	337
9	0	0	0	0	629
10	0	0	0	0	344
11	0	0	0	0	631
12	0	0	0	0	337
13	0	0	0	0	629
14	0	0	0	0	340
15	0	0	0	0	625
0	0	0	0	0	340
1	0	0	0	0	626
2	0	0	0	0	348
3	0	0	0	0	633
4	0	0	0	0	339
5	0	0	0	0	624
6	0	0	0	0	338
7	0	0	0	0	632
8	0	0	0	0	344
9	0	0	0	0	627
10	0	0	0	0	349
11	0	0	0	0	629
12	0	0	0	0	339
13	0	0	0	0	635
14	0	0	0	0	344
15	0	0	0	0	626
0	0	0	0	0	345
1	0	0	0	0	627
2	0	0	0	0	343
3	0	0	0	0	628
4	0	0	0	0	342
5	0	0	0	0	635
6	0	0	0	0	342
7	0	0	0	0	635
8	0	0	0	0	336
9	0	0	0	0	631
10	0	0	0	0	348
11	0	0	0	0	627
12	0	0	0	0	338
13	0	0	0	0	622
14	0	0	0	0	344
15	0	0	0	0	632
0	0	0	0	0	346
1	0	0	0	0	632
2	0	0	0	0	348
3	0	0	0	0	630
4	0	0	0	0	344
5	0	0	0	0	627
6	0	0	0	0	346
7	0	0	0	0	624
8	0	0	0	0	341
9	0	0	0	0	632
10	0	0	0	0	345
11	0	0	0	0	626
12	0	0	0	0	339
13	0	0	0	0	631
14	0	0	0	0	343
15	0	0	0	0	630
0	0	0	0	0	337
1	0	0	0	0	628
2	0	0	0	0	340
3	0	0	0	0	633
4	0	0	0	0	342
5	0	0	0	0	632
6	0	0	0	0	340
7	0	0	0	0	634
8	0	0	0	0	343
9	0	0	0	0	629
10	0	0	0	0	342
11	0	0	0	0	636
12	0	0	0	0	342
13	0	0	0	0	620
14	0	0	0	0	344
15	0	0	0	0	635
0	0	0	0	0	344
1	0	0	0	0	629
2	0	0	0	0	344
3	0	0	0	0	621
4	0	0	0	0	343
5	0	0	0	0	626
6	0	0	0	0	345
7	0	0	0	0	626
8	0	0	0	0	341
9	0	0	0	0	632
10	0	0	0	0	336
11	0	0	0	0	623
12	0	0	0	0	344
13	0	0	0	0	632
14	0	0	0	0	346
15	0	0	0	0	631
0	0	0	0	0	339
1	0	0	0	0	634
2	0	0	0	0	346
3	0	0	0	0	625
4	0	0	0	0	345
5	0	0	0	0	634
6	0	0	0	0	342
7	0	0	0	0	628
8	0	0	0	0	344
9	0	0	0	0	632
10	0	0	0	0	341
11	0	0	0	0	636
12	0	0	0	0	338
13	0	0	0	0	628
14	0	0	0	0	351
15	0	0	0	0	632
0	0	0	0	0	342
1	0	0	0	0	636
2	0	0	0	0	341
3	0	0	0	0	629
4	0	0	0	0	335
5	0	0	0	0	623
6	0	0	0	0	337
7	0	0	0	0	628
8	0	0	0	0	341
9	0	0	0	0	623
10	0	0	0	0	351
11	0	0	0	0	632
12	0	0	0	0	339
13	0	0	0	0	623
14	0	0	0	0	340
15	0	0	0	0	626
0	0	0	0	0	344
1	0	0	0	0	632
2	0	0	0	0	337
3	0	0	0	0	628
4	0	0	0	0	342
5	0	0	0	0	624
6	0	0	0	0	341
7	0	0	0	0	631
8	0	0	0	0	346
9	0	0	0	0	626
10	0	0	0	0	340
11	0	0	0	0	632
12	0	0	0	0	343
13	0	0	0	0	628
14	0	0	0	0	347
15	0	0	0	0	627
0	0	0	0	0	342
1	0	0	0	0	627
2	0	0	0	0	338
3	0	0	0	0	632
4	0	0	0	0	344
5	0	0	0	0	622
6	0	0	0	0	341
7	0	0	0	0	628
8	0	0	0	0	344
9	0	0	0	0	626
10	0	0	0	0	338
11	0	0	0	0	632
12	0	0	0	0	340
13	0	0	0	0	625
14	0	0	0	0	348
15	0	0	0	0	626
0	0	0	0	0	339
1	0	0	0	0	624
2	0	0	0	0	345
3	0	0	0	0	624
4	0	0	0	0	343
5	0	0	0	0	629
6	0	0	0	0	343
7	0	0	0	0	626
8	0	0	0	0	345
9	0	0	0	0	628
10	0	0	0	0	338
11	0	0	0	0	631
12	0	0	0	0	343
13	0	0	0	0	629
14	0	0	0	0	340
15	0	0	0	0	622
0	0	0	0	0	343
1	0	0	0	0	631
2	0	0	0	0	338
3	0	0	0	0	633
4	0	0	0	0	336
5	0	0	0	0	631
6	0	0	0	0	343
7	0	0	0	0	625
8	0	0	0	0	342
9	0	0	0	0	627
10	0	0	0	0	343
11	0	0	0	0	631
12	0	0	0	0	344
13	0	0	0	0	634
14	0	0	0	0	336
15	0	0	0	0	634
0	0	0	0	0	342
1	0	0	0	0	632
2	0	0	0	0	345
3	0	0	0	0	631
4	0	0	0	0	343
5	0	0	0	0	628
6	0	0	0	0	344
7	0	0	0	0	628
8	0	0	0	0	340
9	0	0	0	0	625
10	0	0	0	0	344
11	0	0	0	0	622
12	0	0	0	0	340
13	0	0	0	0	628
14	0	0	0	0	334
15	0	0	0	0	625
0	0	0	0	0	339
1	0	0	0	0	624
2	0	0	0	0	340
3	0	0	0	0	632
4	0	0	0	0	348
5	0	0	0	0	629
6	0	0	0	0	342
7	0	0	0	0	628
8	0	0	0	0	335
9	0	0	0	0	628
10	0	0	0	0	337
11	0	0	0	0	633
12	0	0	0	0	343
13	0	0	0	0	631
14	0	0	0	0	340
15	0	0	0	0	625
0	0	0	0	0	339
1	0	0	0	0	622
2	0	0	0	0	341
3	0	0	0	0	623
4	0	0	0	0	341