# OpenSignals Text File Format. Version 1
# {"84:BA:20:5E:FF:7F": {"position": 0, "device": "bitalino_rev", "device name": "84:BA:20:5E:FF:7F", "device connection": "BTH84:BA:20:5E:FF:7F", "sampling rate": 100, "resolution": [4, 1, 1, 1, 1, 10], "firmware version": 1282, "comments": "", "keywords": "", "mode": 0, "sync interval": 2, "date": "2024-3-6", "time": "19:2:40.159", "channels": [1], "sensor": ["EMGBITREV"], "label": ["A1"], "column": ["nSeq", "I1", "I2", "O1", "O2", "A1"], "special": [{}], "digital IO": [0, 0, 1, 1]}}
# EndOfHeader
0	0	0	0	0	397
1	0	0	0	0	600
2	0	0	0	0	398
3	0	0	0	0	608
4	0	0	0	0	402
5	0	0	0	0	596
6	0	0	0	0	404
7	0	0	0	0	597
8	0	0	0	0	404
9	0	0	0	0	599
10	0	0	0	0	402
11	0	0	0	0	593
12	0	0	0	0	404
13	0	0	0	0	606
14	0	0	0	0	412
15	0	0	0	0	593
0	0	0	0	0	416
1	0	0	0	0	594
2	0	0	0	0	406
3	0	0	0	0	609
4	0	0	0	0	400
5	0	0	0	0	601
6	0	0	0	0	407
7	0	0	0	0	596
8	0	0	0	0	397
9	0	0	0	0	589
10	0	0	0	0	406
11	0	0	0	0	590
12	0	0	0	0	412
13	0	0	0	0	605
14	0	0	0	0	408
15	0	0	0	0	595
0	0	0	0	0	416
1	0	0	0	0	593
2	0	0	0	0	411
3	0	0	0	0	590
4	0	0	0	0	416
5	0	0	0	0	592
6	0	0	0	0	414
7	0	0	0	0	596
8	0	0	0	0	413
9	0	0	0	0	589
10	0	0	0	0	420
11	0	0	0	0	588
12	0	0	0	0	412
13	0	0	0	0	597
14	0	0	0	0	412
15	0	0	0	0	581
0	0	0	0	0	421
1	0	0	0	0	593
2	0	0	0	0	411
3	0	0	0	0	584
4	0	0	0	0	422
5	0	0	0	0	588
6	0	0	0	0	419
7	0	0	0	0	592
8	0	0	0	0	424
9	0	0	0	0	580
10	0	0	0	0	413
11	0	0	0	0	590
12	0	0	0	0	419
13	0	0	0	0	585
14	0	0	0	0	430
15	0	0	0	0	571
0	0	0	0	0	424
1	0	0	0	0	581
2	0	0	0	0	424
3	0	0	0	0	580
4	0	0	0	0	433
5	0	0	0	0	583
6	0	0	0	0	424
7	0	0	0	0	578
8	0	0	0	0	433
9	0	0	0	0	575
10	0	0	0	0	429
11	0	0	0	0	579
12	0	0	0	0	433
13	0	0	0	0	570
14	0	0	0	0	439
15	0	0	0	0	575
0	0	0	0	0	440
1	0	0	0	0	574
2	0	0	0	0	436
3	0	0	0	0	561
4	0	0	0	0	441
5	0	0	0	0	578
6	0	0	0	0	443
7	0	0	0	0	568
8	0	0	0	0	441
9	0	0	0	0	567
10	0	0	0	0	443
11	0	0	0	0	574
12	0	0	0	0	439
13	0	0	0	0	558
14	0	0	0	0	444
15	0	0	0	0	574
0	0	0	0	0	445
1	0	0	0	0	567
2	0	0	0	0	440
3	0	0	0	0	564
4	0	0	0	0	449
5	0	0	0	0	570
6	0	0	0	0	439
7	0	0	0	0	560
8	0	0	0	0	450
9	0	0	0	0	565
10	0	0	0	0	445
11	0	0	0	0	559
12	0	0	0	0	456
13	0	0	0	0	555
14	0	0	0	0	451
15	0	0	0	0	572
0	0	0	0	0	440
1	0	0	0	0	560
2	0	0	0	0	448
3	0	0	0	0	560
4	0	0	0	0	454
5	0	0	0	0	558
6	0	0	0	0	459
7	0	0	0	0	548
8	0	0	0	0	463
9	0	0	0	0	570
10	0	0	0	0	446
11	0	0	0	0	566
12	0	0	0	0	458
13	0	0	0	0	553
14	0	0	0	0	451
15	0	0	0	0	555
0	0	0	0	0	467
1	0	0	0	0	542
2	0	0	0	0	469
3	0	0	0	0	558
4	0	0	0	0	469
5	0	0	0	0	554
6	0	0	0	0	472
7	0	0	0	0	543
8	0	0	0	0	461
9	0	0	0	0	553
10	0	0	0	0	472
11	0	0	0	0	542
12	0	0	0	0	475
13	0	0	0	0	545
14	0	0	0	0	486
15	0	0	0	0	529
0	0	0	0	0	502
1	0	0	0	0	516
2	0	0	0	0	506
3	0	0	0	0	518
4	0	0	0	0	506
5	0	0	0	0	516
6	0	0	0	0	509
7	0	0	0	0	517
8	0	0	0	0	501
9	0	0	0	0	515
10	0	0	0	0	516
11	0	0	0	0	516
12	0	0	0	0	509
13	0	0	0	0	515
14	0	0	0	0	507
15	0	0	0	0	514
0	0	0	0	0	512
1	0	0	0	0	508
2	0	0	0	0	517
3	0	0	0	0	511
4	0	0	0	0	504
5	0	0	0	0	515
6	0	0	0	0	506
7	0	0	0	0	518
8	0	0	0	0	501
9	0	0	0	0	515
10	0	0	0	0	499
11	0	0	0	0	526
12	0	0	0	0	497
13	0	0	0	0	520
14	0	0	0	0	496
15	0	0	0	0	527
0	0	0	0	0	490
1	0	0	0	0	537
2	0	0	0	0	497
3	0	0	0	0	529
4	0	0	0	0	495
5	0	0	0	0	523
6	0	0	0	0	502
7	0	0	0	0	530
8	0	0	0	0	489
9	0	0	0	0	527
10	0	0	0	0	490
11	0	0	0	0	530
12	0	0	0	0	493
13	0	0	0	0	534
14	0	0	0	0	477
15	0	0	0	0	592
0	0	0	0	0	419
1	0	0	0	0	572
2	0	0	0	0	420
3	0	0	0	0	587
4	0	0	0	0	426
5	0	0	0	0	580
6	0	0	0	0	420
7	0	0	0	0	604
8	0	0	0	0	414
9	0	0	0	0	589
10	0	0	0	0	420
11	0	0	0	0	606
12	0	0	0	0	413
13	0	0	0	0	607
14	0	0	0	0	417
15	0	0	0	0	593
0	0	0	0	0	424
1	0	0	0	0	601
2	0	0	0	0	410
3	0	0	0	0	589
4	0	0	0	0	413
5	0	0	0	0	601
6	0	0	0	0	404
7	0	0	0	0	607
8	0	0	0	0	413
9	0	0	0	0	593
10	0	0	0	0	410
11	0	0	0	0	613
12	0	0	0	0	398
13	0	0	0	0	620
14	0	0	0	0	405
15	0	0	0	0	598
0	0	0	0	0	395
1	0	0	0	0	613
2	0	0	0	0	398
3	0	0	0	0	608
4	0	0	0	0	394
5	0	0	0	0	628
6	0	0	0	0	381
7	0	0	0	0	631
8	0	0	0	0	382
9	0	0	0	0	621
10	0	0	0	0	387
11	0	0	0	0	636
12	0	0	0	0	380
13	0	0	0	0	623
14	0	0	0	0	381
15	0	0	0	0	639
0	0	0	0	0	366
1	0	0	0	0	656
2	0	0	0	0	370
3	0	0	0	0	624
4	0	0	0	0	363
5	0	0	0	0	649
6	0	0	0	0	358
7	0	0	0	0	657
8	0	0	0	0	362
9	0	0	0	0	645
10	0	0	0	0	358
11	0	0	0	0	652
12	0	0	0	0	361
13	0	0	0	0	635
14	0	0	0	0	353
15	0	0	0	0	660
0	0	0	0	0	349
1	0	0	0	0	665
2	0	0	0	0	348
3	0	0	0	0	641
4	0	0	0	0	351
5	0	0	0	0	665
6	0	0	0	0	348
7	0	0	0	0	670
8	0	0	0	0	345
9	0	0	0	0	664
10	0	0	0	0	340
11	0	0	0	0	664
12	0	0	0	0	343
13	0	0	0	0	652
14	0	0	0	0	339
15	0	0	0	0	674
0	0	0	0	0	333
1	0	0	0	0	674
2	0	0	0	0	341
3	0	0	0	0	669
4	0	0	0	0	332
5	0	0	0	0	678
6	0	0	0	0	340
7	0	0	0	0	655
8	0	0	0	0	336
9	0	0	0	0	677
10	0	0	0	0	325
11	0	0	0	0	684
12	0	0	0	0	330
13	0	0	0	0	660
14	0	0	0	0	341
15	0	0	0	0	678
0	0	0	0	0	332
1	0	0	0	0	680
2	0	0	0	0	338
3	0	0	0	0	678
4	0	0	0	0	331
5	0	0	0	0	682
6	0	0	0	0	329
7	0	0	0	0	664
8	0	0	0	0	341
9	0	0	0	0	685
10	0	0	0	0	331
11	0	0	0	0	684
12	0	0	0	0	337
13	0	0	0	0	669
14	0	0	0	0	342
15	0	0	0	0	680
0	0	0	0	0	339
1	0	0	0	0	668
2	0	0	0	0	334
3	0	0	0	0	683
4	0	0	0	0	329
5	0	0	0	0	675
6	0	0	0	0	342
7	0	0	0	0	671
8	0	0	0	0	340
9	0	0	0	0	676
10	0	0	0	0	333
11	0	0	0	0	669
12	0	0	0	0	334
13	0	0	0	0	679
14	0	0	0	0	342
15	0	0	0	0	678
0	0	0	0	0	337
1	0	0	0	0	660
2	0	0	0	0	335
3	0	0	0	0	676
4	0	0	0	0	342
5	0	0	0	0	670
6	0	0	0	0	340
7	0	0	0	0	678
8	0	0	0	0	337
9	0	0	0	0	681
10	0	0	0	0	345
11	0	0	0	0	672
12	0	0	0	0	336
13	0	0	0	0	677
14	0	0	0	0	329
15	0	0	0	0	671
0	0	0	0	0	341
1	0	0	0	0	673
2	0	0	0	0	343
3	0	0	0	0	684
4	0	0	0	0	338
5	0	0	0	0	672
6	0	0	0	0	338
7	0	0	0	0	674
8	0	0	0	0	341
9	0	0	0	0	671
10	0	0	0	0	332
11	0	0	0	0	660
12	0	0	0	0	344
13	0	0	0	0	672
14	0	0	0	0	343
15	0	0	0	0	672
0	0	0	0	0	342
1	0	0	0	0	657
2	0	0	0	0	348
3	0	0	0	0	673
4	0	0	0	0	345
5	0	0	0	0	674
6	0	0	0	0	340
7	0	0	0	0	673
8	0	0	0	0	337
9	0	0	0	0	670
10	0	0	0	0	342
11	0	0	0	0	664
12	0	0	0	0	338
13	0	0	0	0	667
14	0	0	0	0	342
15	0	0	0	0	670
0	0	0	0	0	344
1	0	0	0	0	667
2	0	0	0	0	349
3	0	0	0	0	673
4	0	0	0	0	337
5	0	0	0	0	667
6	0	0	0	0	334
7	0	0	0	0	664
8	0	0	0	0	344
9	0	0	0	0	665
10	0	0	0	0	342
11	0	0	0	0	671
12	0	0	0	0	344
13	0	0	0	0	667
14	0	0	0	0	342
15	0	0	0	0	665
0	0	0	0	0	340
1	0	0	0	0	665
2	0	0	0	0	340
3	0	0	0	0	673
4	0	0	0	0	344
5	0	0	0	0	662
6	0	0	0	0	356
7	0	0	0	0	660
8	0	0	0	0	346
9	0	0	0	0	668
10	0	0	0	0	348
11	0	0	0	0	664
12	0	0	0	0	343
13	0	0	0	0	660
14	0	0	0	0	345
15	0	0	0	0	667
0	0	0	0	0	342
1	0	0	0	0	658
2	0	0	0	0	353
3	0	0	0	0	659
4	0	0	0	0	348
5	0	0	0	0	657
6	0	0	0	0	350
7	0	0	0	0	654
8	0	0	0	0	352
9	0	0	0	0	660
10	0	0	0	0	348
11	0	0	0	0	666
12	0	0	0	0	347
13	0	0	0	0	656
14	0	0	0	0	349
15	0	0	0	0	657
0	0	0	0	0	359
1	0	0	0	0	657
2	0	0	0	0	353
3	0	0	0	0	655
4	0	0	0	0	351
5	0	0	0	0	658
6	0	0	0	0	364
7	0	0	0	0	652
8	0	0	0	0	352
9	0	0	0	0	657
10	0	0	0	0	348
11	0	0	0	0	657
12	0	0	0	0	355
13	0	0	0	0	645
14	0	0	0	0	349
15	0	0	0	0	653
0	0	0	0	0	361
1	0	0	0	0	659
2	0	0	0	0	358
3	0	0	0	0	661
4	0	0	0	0	357
5	0	0	0	0	654
6	0	0	0	0	352
7	0	0	0	0	652
8	0	0	0	0	354
9	0	0	0	0	659
10	0	0	0	0	362
11	0	0	0	0	656
12	0	0	0	0	354
13	0	0	0	0	664
14	0	0	0	0	363
15	0	0	0	0	657
0	0	0	0	0	360
1	0	0	0	0	653
2	0	0	0	0	353
3	0	0	0	0	652
4	0	0	0	0	361
5	0	0	0	0	650
6	0	0	0	0	352
7	0	0	0	0	659
8	0	0	0	0	359
9	0	0	0	0	658
10	0	0	0	0	356
11	0	0	0	0	653
12	0	0	0	0	353
13	0	0	0	0	659
14	0	0	0	0	351
15	0	0	0	0	650
0	0	0	0	0	366
1	0	0	0	0	653
2	0	0	0	0	357
3	0	0	0	0	649
4	0	0	0	0	365
5	0	0	0	0	653
6	0	0	0	0	346
7	0	0	0	0	653
8	0	0	0	0	354
9	0	0	0	0	651
10	0	0	0	0	362
11	0	0	0	0	655
12	0	0	0	0	356
13	0	0	0	0	659
14	0	0	0	0	360
15	0	0	0	0	651
0	0	0	0	0	355
1	0	0	0	0	652
2	0	0	0	0	353
3	0	0	0	0	649
4	0	0	0	0	364
5	0	0	0	0	650
6	0	0	0	0	364
7	0	0	0	0	646
8	0	0	0	0	358
9	0	0	0	0	651
10	0	0	0	0	363
11	0	0	0	0	657
12	0	0	0	0	353
13	0	0	0	0	654
14	0	0	0	0	361
15	0	0	0	0	651
0	0	0	0	0	362
1	0	0	0	0	648
2	0	0	0	0	359
3	0	0	0	0	653
4	0	0	0	0	367
5	0	0	0	0	644
6	0	0	0	0	358
7	0	0	0	0	647
8	0	0	0	0	356
9	0	0	0	0	658
10	0	0	0	0	361
11	0	0	0	0	651
12	0	0	0	0	353
13	0	0	0	0	652
14	0	0	0	0	367
15	0	0	0	0	651
0	0	0	0	0	353
1	0	0	0	0	652
2	0	0	0	0	368
3	0	0	0	0	639
4	0	0	0	0	361
5	0	0	0	0	645
6	0	0	0	0	361
7	0	0	0	0	643
8	0	0	0	0	361
9	0	0	0	0	648
10	0	0	0	0	364
11	0	0	0	0	648
12	0	0	0	0	361
13	0	0	0	0	650
14	0	0	0	0	362
15	0	0	0	0	651
0	0	0	0	0	357
1	0	0	0	0	649
2	0	0	0	0	364
3	0	0	0	0	650
4	0	0	0	0	360
5	0	0	0	0	647
6	0	0	0	0	359
7	0	0	0	0	648
8	0	0	0	0	363
9	0	0	0	0	648
10	0	0	0	0	361
11	0	0	0	0	642
12	0	0	0	0	356
13	0	0	0	0	654
14	0	0	0	0	362
15	0	0	0	0	652
0	0	0	0	0	365
1	0	0	0	0	647
2	0	0	0	0	358
3	0	0	0	0	652
4	0	0	0	0	364
5	0	0	0	0	657
6	0	0	0	0	361
7	0	0	0	0	647
8	0	0	0	0	358
9	0	0	0	0	651
10	0	0	0	0	353
11	0	0	0	0	658
12	0	0	0	0	361
13	0	0	0	0	643
14	0	0	0	0	359
15	0	0	0	0	646
0	0	0	0	0	358
1	0	0	0	0	639
2	0	0	0	0	368
3	0	0	0	0	649
4	0	0	0	0	360
5	0	0	0	0	657
6	0	0	0	0	362
7	0	0	0	0	647
8	0	0	0	0	364
9	0	0	0	0	657
10	0	0	0	0	361
11	0	0	0	0	650
12	0	0	0	0	363
13	0	0	0	0	653
14	0	0	0	0	363
15	0	0	0	0	654
0	0	0	0	0	360
1	0	0	0	0	648
2	0	0	0	0	369
3	0	0	0	0	650
4	0	0	0	0	353
5	0	0	0	0	648
6	0	0	0	0	363
7	0	0	0	0	652
8	0	0	0	0	367
9	0	0	0	0	654
10	0	0	0	0	365
11	0	0	0	0	653
12	0	0	0	0	364
13	0	0	0	0	647
14	0	0	0	0	364
15	0	0	0	0	650
0	0	0	0	0	358
1	0	0	0	0	648
2	0	0	0	0	364
3	0	0	0	0	646
4	0	0	0	0	355
5	0	0	0	0	654
6	0	0	0	0	361
7	0	0	0	0	651
8	0	0	0	0	354
9	0	0	0	0	652
10	0	0	0	0	366
11	0	0	0	0	655
12	0	0	0	0	358
13	0	0	0	0	642
14	0	0	0	0	359
15	0	0	0	0	650
0	0	0	0	0	360
1	0	0	0	0	645
2	0	0	0	0	360
3	0	0	0	0	652
4	0	0	0	0	353
5	0	0	0	0	657
6	0	0	0	0	363
7	0	0	0	0	654
8	0	0	0	0	353
9	0	0	0	0	660
10	0	0	0	0	358
11	0	0	0	0	659
12	0	0	0	0	349
13	0	0	0	0	654
14	0	0	0	0	354
15	0	0	0	0	653
0	0	0	0	0	363
1	0	0	0	0	647
2	0	0	0	0	358
3	0	0	0	0	663
4	0	0	0	0	352
5	0	0	0	0	660
6	0	0	0	0	354
7	0	0	0	0	657
8	0	0	0	0	356
9	0	0	0	0	657
10	0	0	0	0	356
11	0	0	0	0	661
12	0	0	0	0	356
13	0	0	0	0	653
14	0	0	0	0	349
15	0	0	0	0	657
0	0	0	0	0	360
1	0	0	0	0	653
2	0	0	0	0	349
3	0	0	0	0	655
4	0	0	0	0	352
5	0	0	0	0	653
6	0	0	0	0	353
7	0	0	0	0	655
8	0	0	0	0	352
9	0	0	0	0	656
10	0	0	0	0	356
11	0	0	0	0	654
12	0	0	0	0	353
13	0	0	0	0	655
14	0	0	0	0	352
15	0	0	0	0	656
0	0	0	0	0	354
1	0	0	0	0	654
2	0	0	0	0	349
3	0	0	0	0	655
4	0	0	0	0	352
5	0	0	0	0	652
6	0	0	0	0	352
7	0	0	0	0	655
8	0	0	0	0	348
9	0	0	0	0	657
10	0	0	0	0	357
11	0	0	0	0	659
12	0	0	0	0	353
13	0	0	0	0	657
14	0	0	0	0	354
15	0	0	0	0	651
0	0	0	0	0	357
1	0	0	0	0	654
2	0	0	0	0	357
3	0	0	0	0	649
4	0	0	0	0	354
5	0	0	0	0	648
6	0	0	0	0	354
7	0	0	0	0	662
8	0	0	0	0	353
9	0	0	0	0	660
10	0	0	0	0	355
11	0	0	0	0	653
12	0	0	0	0	353
13	0	0	0	0	653
14	0	0	0	0	355
15	0	0	0	0	659
0	0	0	0	0	353
1	0	0	0	0	663
2	0	0	0	0	358
3	0	0	0	0	656
4	0	0	0	0	355
5	0	0	0	0	659
6	0	0	0	0	359
7	0	0	0	0	653
8	0	0	0	0	352
9	0	0	0	0	653
10	0	0	0	0	347
11	0	0	0	0	660
12	0	0	0	0	345
13	0	0	0	0	654
14	0	0	0	0	355
15	0	0	0	0	653
0	0	0	0	0	353
1	0	0	0	0	660
2	0	0	0	0	356
3	0	0	0	0	653
4	0	0	0	0	353
5	0	0	0	0	655
6	0	0	0	0	356
7	0	0	0	0	657
8	0	0	0	0	352
9	0	0	0	0	658
10	0	0	0	0	351
11	0	0	0	0	668
12	0	0	0	0	353
13	0	0	0	0	661
14	0	0	0	0	359
15	0	0	0	0	656
0	0	0	0	0	351
1	0	0	0	0	661
2	0	0	0	0	358
3	0	0	0	0	659
4	0	0	0	0	349
5	0	0	0	0	655
6	0	0	0	0	353
7	0	0	0	0	655
8	0	0	0	0	352
9	0	0	0	0	658
10	0	0	0	0	358
11	0	0	0	0	650
12	0	0	0	0	348
13	0	0	0	0	652
14	0	0	0	0	352
15	0	0	0	0	652
0	0	0	0	0	355
1	0	0	0	0	663
2	0	0	0	0	348
3	0	0	0	0	662
4	0	0	0	0	355
5	0	0	0	0	659
6	0	0	0	0	357
7	0	0	0	0	660
8	0	0	0	0	353
9	0	0	0	0	659
10	0	0	0	0	364
11	0	0	0	0	659
12	0	0	0	0	349
13	0	0	0	0	650
14	0	0	0	0	357
15	0	0	0	0	653
0	0	0	0	0	353
1	0	0	0	0	657
2	0	0	0	0	356
3	0	0	0	0	665
4	0	0	0	0	357
5	0	0	0	0	652
6	0	0	0	0	357
7	0	0	0	0	652
8	0	0	0	0	355
9	0	0	0	0	654
10	0	0	0	0	355
11	0	0	0	0	657
12	0	0	0	0	356
13	0	0	0	0	650
14	0	0	0	0	361
15	0	0	0	0	655
0	0	0	0	0	353
1	0	0	0	0	653
2	0	0	0	0	358
3	0	0	0	0	646
4	0	0	0	0	354
5	0	0	0	0	654
6	0	0	0	0	358
7	0	0	0	0	659
8	0	0	0	0	358
9	0	0	0	0	657
10	0	0	0	0	355
11	0	0	0	0	649
12	0	0	0	0	364
13	0	0	0	0	655
14	0	0	0	0	359
15	0	0	0	0	660
0	0	0	0	0	359
1	0	0	0	0	653
2	0	0	0	0	357
3	0	0	0	0	652
4	0	0	0	0	353
5	0	0	0	0	654
6	0	0	0	0	351
7	0	0	0	0	647
8	0	0	0	0	357
9	0	0	0	0	650
10	0	0	0	0	358
11	0	0	0	0	657
12	0	0	0	0	361
13	0	0	0	0	653
14	0	0	0	0	362
15	0	0	0	0	653
0	0	0	0	0	358
1	0	0	0	0	658
2	0	0	0	0	360
3	0	0	0	0	651
4	0	0	0	0	355
5	0	0	0	0	651
6	0	0	0	0	359
7	0	0	0	0	654
8	0	0	0	0	363
9	0	0	0	0	652
10	0	0	0	0	358
11	0	0	0	0	648
12	0	0	0	0	357
13	0	0	0	0	649
14	0	0	0	0	355
15	0	0	0	0	652
0	0	0	0	0	352
1	0	0	0	0	647
2	0	0	0	0	357
3	0	0	0	0	648
4	0	0	0	0	357
5	0	0	0	0	652
6	0	0	0	0	357
7	0	0	0	0	652
8	0	0	0	0	364
9	0	0	0	0	651
10	0	0	0	0	360
11	0	0	0	0	653
12	0	0	0	0	362
13	0	0	0	0	647
14	0	0	0	0	359
15	0	0	0	0	649
0	0	0	0	0	359
1	0	0	0	0	652
2	0	0	0	0	360
3	0	0	0	0	651
4	0	0	0	0	360
5	0	0	0	0	654
6	0	0	0	0	361
7	0	0	0	0	648
8	0	0	0	0	359
9	0	0	0	0	647
10	0	0	0	0	363
11	0	0	0	0	641
12	0	0	0	0	362
13	0	0	0	0	639
14	0	0	0	0	365
15	0	0	0	0	643
0	0	0	0	0	372
1	0	0	0	0	644
2	0	0	0	0	365
3	0	0	0	0	652
4	0	0	0	0	363
5	0	0	0	0	654
6	0	0	0	0	364
7	0	0	0	0	647
8	0	0	0	0	361
9	0	0	0	0	648
10	0	0	0	0	370
11	0	0	0	0	652
12	0	0	0	0	363
13	0	0	0	0	638
14	0	0	0	0	372
15	0	0	0	0	651
0	0	0	0	0	357
1	0	0	0	0	649
2	0	0	0	0	361
3	0	0	0	0	652
4	0	0	0	0	371
5	0	0	0	0	644
6	0	0	0	0	369
7	0	0	0	0	651
8	0	0	0	0	371
9	0	0	0	0	644
10	0	0	0	0	361
11	0	0	0	0	648
12	0	0	0	0	365
13	0	0	0	0	645
14	0	0	0	0	357
15	0	0	0	0	644
0	0	0	0	0	366
1	0	0	0	0	648
2	0	0	0	0	369
3	0	0	0	0	651
4	0	0	0	0	369
5	0	0	0	0	640
6	0	0	0	0	372
7	0	0	0	0	657
8	0	0	0	0	371
9	0	0	0	0	645
10	0	0	0	0	364
11	0	0	0	0	646
12	0	0	0	0	373
13	0	0	0	0	646
14	0	0	0	0	364
15	0	0	0	0	647
0	0	0	0	0	363
1	0	0	0	0	648
2	0	0	0	0	364
3	0	0	0	0	646
4	0	0	0	0	364
5	0	0	0	0	645
6	0	0	0	0	371
7	0	0	0	0	653
8	0	0	0	0	371
9	0	0	0	0	643
10	0	0	0	0	365
11	0	0	0	0	646
12	0	0	0	0	362
13	0	0	0	0	644
14	0	0	0	0	366
15	0	0	0	0	656
0	0	0	0	0	363
1	0	0	0	0	640
2	0	0	0	0	365
3	0	0	0	0	645
4	0	0	0	0	366
5	0	0	0	0	650
6	0	0	0	0	367
7	0	0	0	0	640
8	0	0	0	0	365
9	0	0	0	0	648
10	0	0	0	0	370
11	0	0	0	0	650
12	0	0	0	0	359
13	0	0	0	0	645
14	0	0	0	0	366
15	0	0	0	0	646
0	0	0	0	0	368
1	0	0	0	0	650
2	0	0	0	0	361
3	0	0	0	0	654
4	0	0	0	0	370
5	0	0	0	0	643
6	0	0	0	0	367
7	0	0	0	0	646
8	0	0	0	0	370
9	0	0	0	0	648
10	0	0	0	0	370
11	0	0	0	0	643
12	0	0	0	0	366
13	0	0	0	0	643
14	0	0	0	0	370
15	0	0	0	0	644
0	0	0	0	0	361
1	0	0	0	0	641
2	0	0	0	0	368
3	0	0	0	0	644
4	0	0	0	0	364
5	0	0	0	0	641
6	0	0	0	0	372
7	0	0	0	0	648
8	0	0	0	0	367
9	0	0	0	0	637
10	0	0	0	0	369
11	0	0	0	0	650
12	0	0	0	0	370
13	0	0	0	0	646
14	0	0	0	0	369
15	0	0	0	0	645
0	0	0	0	0	368
1	0	0	0	0	641
2	0	0	0	0	369
3	0	0	0	0	647
4	0	0	0	0	369
5	0	0	0	0	647
6	0	0	0	0	372
7	0	0	0	0	640
8	0	0	0	0	369
9	0	0	0	0	647
10	0	0	0	0	370
11	0	0	0	0	653
12	0	0	0	0	371
13	0	0	0	0	641
14	0	0	0	0	368
15	0	0	0	0	644
0	0	0	0	0	367
1	0	0	0	0	641
2	0	0	0	0	375
3	0	0	0	0	648
4	0	0	0	0	364
5	0	0	0	0	641
6	0	0	0	0	376
7	0	0	0	0	641
8	0	0	0	0	371
9	0	0	0	0	644
10	0	0	0	0	369
11	0	0	0	0	644
12	0	0	0	0	367
13	0	0	0	0	648
14	0	0	0	0	370
15	0	0	0	0	639
0	0	0	0	0	365
1	0	0	0	0	646
2	0	0	0	0	370
3	0	0	0	0	642
4	0	0	0	0	357
5	0	0	0	0	638
6	0	0	0	0	371
7	0	0	0	0	640
8	0	0	0	0	373
9	0	0	0	0	639
10	0	0	0	0	370
11	0	0	0	0	645
12	0	0	0	0	359
13	0	0	0	0	647
14	0	0	0	0	371
15	0	0	0	0	651
0	0	0	0	0	366
1	0	0	0	0	639
2	0	0	0	0	370
3	0	0	0	0	643
4	0	0	0	0	368
5	0	0	0	0	637
6	0	0	0	0	372
7	0	0	0	0	646
8	0	0	0	0	361
9	0	0	0	0	648
10	0	0	0	0	364
11	0	0	0	0	639
12	0	0	0	0	373
13	0	0	0	0	635
14	0	0	0	0	365
15	0	0	0	0	645
0	0	0	0	0	364
1	0	0	0	0	644
2	0	0	0	0	372
3	0	0	0	0	650
4	0	0	0	0	368
5	0	0	0	0	640
6	0	0	0	0	368
7	0	0	0	0	648
8	0	0	0	0	364
9	0	0	0	0	639
10	0	0	0	0	373
11	0	0	0	0	642
12	0	0	0	0	365
13	0	0	0	0	644
14	0	0	0	0	375
15	0	0	0	0	640
0	0	0	0	0	373
1	0	0	0	0	641
2	0	0	0	0	364
3	0	0	0	0	643
4	0	0	0	0	365
5	0	0	0	0	640
6	0	0	0	0	368
7	0	0	0	0	648
8	0	0	0	0	367
9	0	0	0	0	638
10	0	0	0	0	370
11	0	0	0	0	639
12	0	0	0	0	368
13	0	0	0	0	644
14	0	0	0	0	372
15	0	0	0	0	648
0	0	0	0	0	369
1	0	0	0	0	643
2	0	0	0	0	374
3	0	0	0	0	645
4	0	0	0	0	367
5	0	0	0	0	638
6	0	0	0	0	369
7	0	0	0	0	638
8	0	0	0	0	366
9	0	0	0	0	650
10	0	0	0	0	372
11	0	0	0	0	642
12	0	0	0	0	370
13	0	0	0	0	649
14	0	0	0	0	372
15	0	0	0	0	643
0	0	0	0	0	374
1	0	0	0	0	645
2	0	0	0	0	368
3	0	0	0	0	638
4	0	0	0	0	370
5	0	0	0	0	645
6	0	0	0	0	365
7	0	0	0	0	643
8	0	0	0	0	369
9	0	0	0	0	645
10	0	0	0	0	373
11	0	0	0	0	641
12	0	0	0	0	368
13	0	0	0	0	650
14	0	0	0	0	369
15	0	0	0	0	643
0	0	0	0	0	373
1	0	0	0	0	651
2	0	0	0	0	374
3	0	0	0	0	636
4	0	0	0	0	365
5	0	0	0	0	647
6	0	0	0	0	374
7	0	0	0	0	645
8	0	0	0	0	367
9	0	0	0	0	635
10	0	0	0	0	365
11	0	0	0	0	641
12	0	0	0	0	371
13	0	0	0	0	640
14	0	0	0	0	366
15	0	0	0	0	645
0	0	0	0	0	367
1	0	0	0	0	636
2	0	0	0	0	369
3	0	0	0	0	638
4	0	0	0	0	369
5	0	0	0	0	639
6	0	0	0	0	369
7	0	0	0	0	642
8	0	0	0	0	371
9	0	0	0	0	641
10	0	0	0	0	379
11	0	0	0	0	645
12	0	0	0	0	373
13	0	0	0	0	642
14	0	0	0	0	373
15	0	0	0	0	641
0	0	0	0	0	362
1	0	0	0	0	641
2	0	0	0	0	372
3	0	0	0	0	643
4	0	0	0	0	372
5	0	0	0	0	647
6	0	0	0	0	371
7	0	0	0	0	640
8	0	0	0	0	373
9	0	0	0	0	635
10	0	0	0	0	372
11	0	0	0	0	643
12	0	0	0	0	371
13	0	0	0	0	643
14	0	0	0	0	368
15	0	0	0	0	639
0	0	0	0	0	376
1	0	0	0	0	644
2	0	0	0	0	377
3	0	0	0	0	647
4	0	0	0	0	377
5	0	0	0	0	644
6	0	0	0	0	371
7	0	0	0	0	643
8	0	0	0	0	376
9	0	0	0	0	642
10	0	0	0	0	375
11	0	0	0	0	644
12	0	0	0	0	372
13	0	0	0	0	641
14	0	0	0	0	372
15	0	0	0	0	643
0	0	0	0	0	373
1	0	0	0	0	648
2	0	0	0	0	372
3	0	0	0	0	643
4	0	0	0	0	376
5	0	0	0	0	642
6	0	0	0	0	374
7	0	0	0	0	637
8	0	0	0	0	373
9	0	0	0	0	643
10	0	0	0	0	372
11	0	0	0	0	644
12	0	0	0	0	377
13	0	0	0	0	648
14	0	0	0	0	381
15	0	0	0	0	643
0	0	0	0	0	368
1	0	0	0	0	645
2	0	0	0	0	374
3	0	0	0	0	637
4	0	0	0	0	374
5	0	0	0	0	646
6	0	0	0	0	376
7	0	0	0	0	647
8	0	0	0	0	380
9	0	0	0	0	636
10	0	0	0	0	374
11	0	0	0	0	640
12	0	0	0	0	376
13	0	0	0	0	644
14	0	0	0	0	384
15	0	0	0	0	637
0	0	0	0	0	369
1	0	0	0	0	641
2	0	0	0	0	377
3	0	0	0	0	645
4	0	0	0	0	369
5	0	0	0	0	644
6	0	0	0	0	371
7	0	0	0	0	646
8	0	0	0	0	374
9	0	0	0	0	651
10	0	0	0	0	382
11	0	0	0	0	642
12	0	0	0	0	379
13	0	0	0	0	639
14	0	0	0	0	380
15	0	0	0	0	640
0	0	0	0	0	376
1	0	0	0	0	637
2	0	0	0	0	376
3	0	0	0	0	639
4	0	0	0	0	369
5	0	0	0	0	640
6	0	0	0	0	376
7	0	0	0	0	643
8	0	0	0	0	387
9	0	0	0	0	635
10	0	0	0	0	379
11	0	0	0	0	639
12	0	0	0	0	376
13	0	0	0	0	645
14	0	0	0	0	382
15	0	0	0	0	641
0	0	0	0	0	376
1	0	0	0	0	637
2	0	0	0	0	378
3	0	0	0	0	640
4	0	0	0	0	379
5	0	0	0	0	640
6	0	0	0	0	377
7	0	0	0	0	640
8	0	0	0	0	383
9	0	0	0	0	640
10	0	0	0	0	375
11	0	0	0	0	638
12	0	0	0	0	382
13	0	0	0	0	639
14	0	0	0	0	380
15	0	0	0	0	633
0	0	0	0	0	379
1	0	0	0	0	631
2	0	0	0	0	377
3	0	0	0	0	644
4	0	0	0	0	383
5	0	0	0	0	640
6	0	0	0	0	379
7	0	0	0	0	636
8	0	0	0	0	378
9	0	0	0	0	635
10	0	0	0	0	386
11	0	0	0	0	638
12	0	0	0	0	385
13	0	0	0	0	641
14	0	0	0	0	379
15	0	0	0	0	634
0	0	0	0	0	389
1	0	0	0	0	643
2	0	0	0	0	380
3	0	0	0	0	632
4	0	0	0	0	378
5	0	0	0	0	636
6	0	0	0	0	381
7	0	0	0	0	641
8	0	0	0	0	384
9	0	0	0	0	636
10	0	0	0	0	381
11	0	0	0	0	634
12	0	0	0	0	381
13	0	0	0	0	633
14	0	0	0	0	384
15	0	0	0	0	637
0	0	0	0	0	379
1	0	0	0	0	636
2	0	0	0	0	387
3	0	0	0	0	634
4	0	0	0	0	378
5	0	0	0	0	638
6	0	0	0	0	387
7	0	0	0	0	638
8	0	0	0	0	381
9	0	0	0	0	641
10	0	0	0	0	378
11	0	0	0	0	635
12	0	0	0	0	380
13	0	0	0	0	638
14	0	0	0	0	376
15	0	0	0	0	633
0	0	0	0	0	382
1	0	0	0	0	642
2	0	0	0	0	387
3	0	0	0	0	642
4	0	0	0	0	385
5	0	0	0	0	633
6	0	0	0	0	388
7	0	0	0	0	640
8	0	0	0	0	381
9	0	0	0	0	639
10	0	0	0	0	392
11	0	0	0	0	632
12	0	0	0	0	380
13	0	0	0	0	634
14	0	0	0	0	386
15	0	0	0	0	631
0	0	0	0	0	386
1	0	0	0	0	635
2	0	0	0	0	384
3	0	0	0	0	630
4	0	0	0	0	384
5	0	0	0	0	638
6	0	0	0	0	381
7	0	0	0	0	636
8	0	0	0	0	385
9	0	0	0	0	633
10	0	0	0	0	388
11	0	0	0	0	643
12	0	0	0	0	382
13	0	0	0	0	633
14	0	0	0	0	388
15	0	0	0	0	641
0	0	0	0	0	378
1	0	0	0	0	635
2	0	0	0	0	381
3	0	0	0	0	638
4	0	0	0	0	389
5	0	0	0	0	629
6	0	0	0	0	383
7	0	0	0	0	633
8	0	0	0	0	385
9	0	0	0	0	630
10	0	0	0	0	392
11	0	0	0	0	636
12	0	0	0	0	385
13	0	0	0	0	641
14	0	0	0	0	385
15	0	0	0	0	625
0	0	0	0	0	384
1	0	0	0	0	638
2	0	0	0	0	389
3	0	0	0	0	634
4	0	0	0	0	392
5	0	0	0	0	633
6	0	0	0	0	389
7	0	0	0	0	636
8	0	0	0	0	382
9	0	0	0	0	636
10	0	0	0	0	390
11	0	0	0	0	635
12	0	0	0	0	381
13	0	0	0	0	636
14	0	0	0	0	390
15	0	0	0	0	637
0	0	0	0	0	383
1	0	0	0	0	637
2	0	0	0	0	382
3	0	0	0	0	635
4	0	0	0	0	389
5	0	0	0	0	625
6	0	0	0	0	388
7	0	0	0	0	640
8	0	0	0	0	388
9	0	0	0	0	630
10	0	0	0	0	388
11	0	0	0	0	631
12	0	0	0	0	381
13	0	0	0	0	632
14	0	0	0	0	393
15	0	0	0	0	628
0	0	0	0	0	386
1	0	0	0	0	630
2	0	0	0	0	387
3	0	0	0	0	637
4	0	0	0	0	384
5	0	0	0	0	629
6	0	0	0	0	383
7	0	0	0	0	634
8	0	0	0	0	383
9	0	0	0	0	635
10	0	0	0	0	384
11	0	0	0	0	631
12	0	0	0	0	383
13	0	0	0	0	629
14	0	0	0	0	383
15	0	0	0	0	628
0	0	0	0	0	385
1	0	0	0	0	635
2	0	0	0	0	387
3	0	0	0	0	636
4	0	0	0	0	384
5	0	0	0	0	631
6	0	0	0	0	386
7	0	0	0	0	640
8	0	0	0	0	392
9	0	0	0	0	630
10	0	0	0	0	389
11	0	0	0	0	637
12	0	0	0	0	384
13	0	0	0	0	634
14	0	0	0	0	383
15	0	0	0	0	634
0	0	0	0	0	387
1	0	0	0	0	632
2	0	0	0	0	385
3	0	0	0	0	624
4	0	0	0	0	395
5	0	0	0	0	633
6	0	0	0	0	386
7	0	0	0	0	638
8	0	0	0	0	384
9	0	0	0	0	633
10	0	0	0	0	390
11	0	0	0	0	630
12	0	0	0	0	384
13	0	0	0	0	638
14	0	0	0	0	384
15	0	0	0	0	632
0	0	0	0	0	378
1	0	0	0	0	635
2	0	0	0	0	387
3	0	0	0	0	632
4	0	0	0	0	385
5	0	0	0	0	631
6	0	0	0	0	386
7	0	0	0	0	636
8	0	0	0	0	389
9	0	0	0	0	633
10	0	0	0	0	390
11	0	0	0	0	637
12	0	0	0	0	380
13	0	0	0	0	639
14	0	0	0	0	374
15	0	0	0	0	635
0	0	0	0	0	388
1	0	0	0	0	629
2	0	0	0	0	391
3	0	0	0	0	632
4	0	0	0	0	394
5	0	0	0	0	641
6	0	0	0	0	386
7	0	0	0	0	629
8	0	0	0	0	384
9	0	0	0	0	634
10	0	0	0	0	386
11	0	0	0	0	629
12	0	0	0	0	385
13	0	0	0	0	630
14	0	0	0	0	390
15	0	0	0	0	632
0	0	0	0	0	392
1	0	0	0	0	632
2	0	0	0	0	390
3	0	0	0	0	637
4	0	0	0	0	388
5	0	0	0	0	640
6	0	0	0	0	385
7	0	0	0	0	632
8	0	0	0	0	380
9	0	0	0	0	635
10	0	0	0	0	389
11	0	0	0	0	631
12	0	0	0	0	376
13	0	0	0	0	638
14	0	0	0	0	380
15	0	0	0	0	636
0	0	0	0	0	384
1	0	0	0	0	637
2	0	0	0	0	385
3	0	0	0	0	638
4	0	0	0	0	384
5	0	0	0	0	633
6	0	0	0	0	382
7	0	0	0	0	639
8	0	0	0	0	381
9	0	0	0	0	640
10	0	0	0	0	384
11	0	0	0	0	644
12	0	0	0	0	383
13	0	0	0	0	641
14	0	0	0	0	381
15	0	0	0	0	636
0	0	0	0	0	380
1	0	0	0	0	643
2	0	0	0	0	375
3	0	0	0	0	639
4	0	0	0	0	385
5	0	0	0	0	633
6	0	0	0	0	386
7	0	0	0	0	639
8	0	0	0	0	379
9	0	0	0	0	635
10	0	0	0	0	379
11	0	0	0	0	645
12	0	0	0	0	374
13	0	0	0	0	638
14	0	0	0	0	379
15	0	0	0	0	637
0	0	0	0	0	379
1	0	0	0	0	642
2	0	0	0	0	380
3	0	0	0	0	648
4	0	0	0	0	374
5	0	0	0	0	641
6	0	0	0	0	382
7	0	0	0	0	639
8	0	0	0	0	380
9	0	0	0	0	637
10	0	0	0	0	383
11	0	0	0	0	637
12	0	0	0	0	378
13	0	0	0	0	641
14	0	0	0	0	375
15	0	0	0	0	634
0	0	0	0	0	374
1	0	0	0	0	635
2	0	0	0	0	381
3	0	0	0	0	637
4	0	0	0	0	380
5	0	0	0	0	637
6	0	0	0	0	377
7	0	0	0	0	641
8	0	0	0	0	381
9	0	0	0	0	633
10	0	0	0	0	379
11	0	0	0	0	640
12	0	0	0	0	378
13	0	0	0	0	643
14	0	0	0	0	387
15	0	0	0	0	640
0	0	0	0	0	377
1	0	0	0	0	640
2	0	0	0	0	386
3	0	0	0	0	638
4	0	0	0	0	388
5	0	0	0	0	641
6	0	0	0	0	379
7	0	0	0	0	639
8	0	0	0	0	385
9	0	0	0	0	639
10	0	0	0	0	374
11	0	0	0	0	633
12	0	0	0	0	378
13	0	0	0	0	635
14	0	0	0	0	382
15	0	0	0	0	639
0	0	0	0	0	383
1	0	0	0	0	629
2	0	0	0	0	388
3	0	0	0	0	632
4	0	0	0	0	388
5	0	0	0	0	637
6	0	0	0	0	392
7	0	0	0	0	639
8	0	0	0	0	384
9	0	0	0	0	642
10	0	0	0	0	375
11	0	0	0	0	637
12	0	0	0	0	389
13	0	0	0	0	632
14	0	0	0	0	385
15	0	0	0	0	634
0	0	0	0	0	380
1	0	0	0	0	638
2	0	0	0	0	382
3	0	0	0	0	640
4	0	0	0	0	381
5	0	0	0	0	637
6	0	0	0	0	385
7	0	0	0	0	638
8	0	0	0	0	379
9	0	0	0	0	638
10	0	0	0	0	380
11	0	0	0	0	637
12	0	0	0	0	383
13	0	0	0	0	644
14	0	0	0	0	374
15	0	0	0	0	641
0	0	0	0	0	370
1	0	0	0	0	643
2	0	0	0	0	374
3	0	0	0	0	645
4	0	0	0	0	367
5	0	0	0	0	638
6	0	0	0	0	374
7	0	0	0	0	648
8	0	0	0	0	372
9	0	0	0	0	643
10	0	0	0	0	377
11	0	0	0	0	651
12	0	0	0	0	373
13	0	0	0	0	637
14	0	0	0	0	374
15	0	0	0	0	642
0	0	0	0	0	372
1	0	0	0	0	643
2	0	0	0	0	372
3	0	0	0	0	644
4	0	0	0	0	372
5	0	0	0	0	640
6	0	0	0	0	376
7	0	0	0	0	646
8	0	0	0	0	366
9	0	0	0	0	647
10	0	0	0	0	377
11	0	0	0	0	643
12	0	0	0	0	373
13	0	0	0	0	649
14	0	0	0	0	376
15	0	0	0	0	646
0	0	0	0	0	376
1	0	0	0	0	637
2	0	0	0	0	376
3	0	0	0	0	638
4	0	0	0	0	371
5	0	0	0	0	644
6	0	0	0	0	376
7	0	0	0	0	648
8	0	0	0	0	372
9	0	0	0	0	636
10	0	0	0	0	370
11	0	0	0	0	642
12	0	0	0	0	371
13	0	0	0	0	647
14	0	0	0	0	377
15	0	0	0	0	644
0	0	0	0	0	365
1	0	0	0	0	645
2	0	0	0	0	376
3	0	0	0	0	640
4	0	0	0	0	380
5	0	0	0	0	642
6	0	0	0	0	374
7	0	0	0	0	639
8	0	0	0	0	371
9	0	0	0	0	644
10	0	0	0	0	372
11	0	0	0	0	646
12	0	0	0	0	370
13	0	0	0	0	646
14	0	0	0	0	374
15	0	0	0	0	644
0	0	0	0	0	376
1	0	0	0	0	637
2	0	0	0	0	370
3	0	0	0	0	652
4	0	0	0	0	374
5	0	0	0	0	641
6	0	0	0	0	373
7	0	0	0	0	645
8	0	0	0	0	376
9	0	0	0	0	640
10	0	0	0	0	362
11	0	0	0	0	649
12	0	0	0	0	362
13	0	0	0	0	643
14	0	0	0	0	369
15	0	0	0	0	640
0	0	0	0	0	370
1	0	0	0	0	653
2	0	0	0	0	376
3	0	0	0	0	642
4	0	0	0	0	373
5	0	0	0	0	641
6	0	0	0	0	364
7	0	0	0	0	642
8	0	0	0	0	371
9	0	0	0	0	648
10	0	0	0	0	377
11	0	0	0	0	647
12	0	0	0	0	370
13	0	0	0	0	644
14	0	0	0	0	368
15	0	0	0	0	642
0	0	0	0	0	367
1	0	0	0	0	643
2	0	0	0	0	369
3	0	0	0	0	645
4	0	0	0	0	369
5	0	0	0	0	646
6	0	0	0	0	366
7	0	0	0	0	640
8	0	0	0	0	370
9	0	0	0	0	648
10	0	0	0	0	374
11	0	0	0	0	641
12	0	0	0	0	373
13	0	0	0	0	640
14	0	0	0	0	372
15	0	0	0	0	646
0	0	0	0	0	371
1	0	0	0	0	640
2	0	0	0	0	372
3	0	0	0	0	651
4	0	0	0	0	363
5	0	0	0	0	651
6	0	0	0	0	371
7	0	0	0	0	651
8	0	0	0	0	373
9	0	0	0	0	644
10	0	0	0	0	368
11	0	0	0	0	646
12	0	0	0	0	367
13	0	0	0	0	648
14	0	0	0	0	375
15	0	0	0	0	644
0	0	0	0	0	366
1	0	0	0	0	642
2	0	0	0	0	371
3	0	0	0	0	643
4	0	0	0	0	373
5	0	0	0	0	644
6	0	0	0	0	376
7	0	0	0	0	644
8	0	0	0	0	375
9	0	0	0	0	651
10	0	0	0	0	366
11	0	0	0	0	651
12	0	0	0	0	376
13	0	0	0	0	647
14	0	0	0	0	373
15	0	0	0	0	643
0	0	0	0	0	375
1	0	0	0	0	650
2	0	0	0	0	373
3	0	0	0	0	648
4	0	0	0	0	375
5	0	0	0	0	644
6	0	0	0	0	362
7	0	0	0	0	642
8	0	0	0	0	372
9	0	0	0	0	651
10	0	0	0	0	370
11	0	0	0	0	650
12	0	0	0	0	367
13	0	0	0	0	644
14	0	0	0	0	371
15	0	0	0	0	642
0	0	0	0	0	369
1	0	0	0	0	645
2	0	0	0	0	373
3	0	0	0	0	650
4	0	0	0	0	368
5	0	0	0	0	643
6	0	0	0	0	366
7	0	0	0	0	652
8	0	0	0	0	374
9	0	0	0	0	649
10	0	0	0	0	369
11	0	0	0	0	641
12	0	0	0	0	372
13	0	0	0	0	647
14	0	0	0	0	370
15	0	0	0	0	651
0	0	0	0	0	371
1	0	0	0	0	647
2	0	0	0	0	372
3	0	0	0	0	645
4	0	0	0	0	370
5	0	0	0	0	646
6	0	0	0	0	368
7	0	0	0	0	647
8	0	0	0	0	372
9	0	0	0	0	656
10	0	0	0	0	374
11	0	0	0	0	642
12	0	0	0	0	364
13	0	0	0	0	648
14	0	0	0	0	371
15	0	0	0	0	644
0	0	0	0	0	372
1	0	0	0	0	643
2	0	0	0	0	371
3	0	0	0	0	646
4	0	0	0	0	364
5	0	0	0	0	645
6	0	0	0	0	372
7	0	0	0	0	651
8	0	0	0	0	363
9	0	0	0	0	650
10	0	0	0	0	370
11	0	0	0	0	638
12	0	0	0	0	368
13	0	0	0	0	648
14	0	0	0	0	368
15	0	0	0	0	647
0	0	0	0	0	369
1	0	0	0	0	644
2	0	0	0	0	366
3	0	0	0	0	643
4	0	0	0	0	377
5	0	0	0	0	644
6	0	0	0	0	380
7	0	0	0	0	638
8	0	0	0	0	374
9	0	0	0	0	643
10	0	0	0	0	372
11	0	0	0	0	646
12	0	0	0	0	373
13	0	0	0	0	649
14	0	0	0	0	376
15	0	0	0	0	643
0	0	0	0	0	372
1	0	0	0	0	643
2	0	0	0	0	368
3	0	0	0	0	642
4	0	0	0	0	362
5	0	0	0	0	644
6	0	0	0	0	366
7	0	0	0	0	646
8	0	0	0	0	372
9	0	0	0	0	645
10	0	0	0	0	368
11	0	0	0	0	650
12	0	0	0	0	375
13	0	0	0	0	647
14	0	0	0	0	371
15	0	0	0	0	645
0	0	0	0	0	375
1	0	0	0	0	650
2	0	0	0	0	376
3	0	0	0	0	644
4	0	0	0	0	368
5	0	0	0	0	644
6	0	0	0	0	369
7	0	0	0	0	648
8	0	0	0	0	380
9	0	0	0	0	648
10	0	0	0	0	373
11	0	0	0	0	644
12	0	0	0	0	369
13	0	0	0	0	651
14	0	0	0	0	368
15	0	0	0	0	643
0	0	0	0	0	373
1	0	0	0	0	644
2	0	0	0	0	373
3	0	0	0	0	644
4	0	0	0	0	368
5	0	0	0	0	651
6	0	0	0	0	369
7	0	0	0	0	641
8	0	0	0	0	370
9	0	0	0	0	642
10	0	0	0	0	372
11	0	0	0	0	648
12	0	0	0	0	376
13	0	0	0	0	649
14	0	0	0	0	381
15	0	0	0	0	644
0	0	0	0	0	377
1	0	0	0	0	648
2	0	0	0	0	371
3	0	0	0	0	645
4	0	0	0	0	371
5	0	0	0	0	642
6	0	0	0	0	376
7	0	0	0	0	637
8	0	0	0	0	371
9	0	0	0	0	641
10	0	0	0	0	375
11	0	0	0	0	641
12	0	0	0	0	373
13	0	0	0	0	640
14	0	0	0	0	370
15	0	0	0	0	643
0	0	0	0	0	369
1	0	0	0	0	640
2	0	0	0	0	377
3	0	0	0	0	646
4	0	0	0	0	372
5	0	0	0	0	644
6	0	0	0	0	372
7	0	0	0	0	637
8	0	0	0	0	373
9	0	0	0	0	644
10	0	0	0	0	373
11	0	0	0	0	645
12	0	0	0	0	374
13	0	0	0	0	645
14	0	0	0	0	374
15	0	0	0	0	641
0	0	0	0	0	373
1	0	0	0	0	643
2	0	0	0	0	377
3	0	0	0	0	648
4	0	0	0	0	372
5	0	0	0	0	637
6	0	0	0	0	369
7	0	0	0	0	647
8	0	0	0	0	373
9	0	0	0	0	641
10	0	0	0	0	371
11	0	0	0	0	649
12	0	0	0	0	373
13	0	0	0	0	649
14	0	0	0	0	376
15	0	0	0	0	639
0	0	0	0	0	374
1	0	0	0	0	640
2	0	0	0	0	379
3	0	0	0	0	640
4	0	0	0	0	372
5	0	0	0	0	642
6	0	0	0	0	375
7	0	0	0	0	643
8	0	0	0	0	374
9	0	0	0	0	644
10	0	0	0	0	375
11	0	0	0	0	647
12	0	0	0	0	371
13	0	0	0	0	640
14	0	0	0	0	377
15	0	0	0	0	642
0	0	0	0	0	372
1	0	0	0	0	643
2	0	0	0	0	373
3	0	0	0	0	644
4	0	0	0	0	373
5	0	0	0	0	642
6	0	0	0	0	369
7	0	0	0	0	643
8	0	0	0	0	369
9	0	0	0	0	641
10	0	0	0	0	372
11	0	0	0	0	648
12	0	0	0	0	373
13	0	0	0	0	649
14	0	0	0	0	374
15	0	0	0	0	647
0	0	0	0	0	376
1	0	0	0	0	637
2	0	0	0	0	381
3	0	0	0	0	641
4	0	0	0	0	379
5	0	0	0	0	647
6	0	0	0	0	373
7	0	0	0	0	641
8	0	0	0	0	377
9	0	0	0	0	642
10	0	0	0	0	376
11	0	0	0	0	641
12	0	0	0	0	373
13	0	0	0	0	640
14	0	0	0	0	376
15	0	0	0	0	645
0	0	0	0	0	377
1	0	0	0	0	647
2	0	0	0	0	376
3	0	0	0	0	639
4	0	0	0	0	373
5	0	0	0	0	644
6	0	0	0	0	377
7	0	0	0	0	642
8	0	0	0	0	374
9	0	0	0	0	635
10	0	0	0	0	378
11	0	0	0	0	638
12	0	0	0	0	373
13	0	0	0	0	643
14	0	0	0	0	378
15	0	0	0	0	645
0	0	0	0	0	369
1	0	0	0	0	634
2	0	0	0	0	373
3	0	0	0	0	640
4	0	0	0	0	371
5	0	0	0	0	641
6	0	0	0	0	374
7	0	0	0	0	637
8	0	0	0	0	376
9	0	0	0	0	644
10	0	0	0	0	374
11	0	0	0	0	647
12	0	0	0	0	372
13	0	0	0	0	637
14	0	0	0	0	378
15	0	0	0	0	637
0	0	0	0	0	376
1	0	0	0	0	639
2	0	0	0	0	372
3	0	0	0	0	646
4	0	0	0	0	365
5	0	0	0	0	640
6	0	0	0	0	376
7	0	0	0	0	642
8	0	0	0	0	374
9	0	0	0	0	645
10	0	0	0	0	372
11	0	0	0	0	637
12	0	0	0	0	381
13	0	0	0	0	636
14	0	0	0	0	373
15	0	0	0	0	644
0	0	0	0	0	378
1	0	0	0	0	636
2	0	0	0	0	380
3	0	0	0	0	637
4	0	0	0	0	377
5	0	0	0	0	647
6	0	0	0	0	377
7	0	0	0	0	638
8	0	0	0	0	376
9	0	0	0	0	637
10	0	0	0	0	374
11	0	0	0	0	644
12	0	0	0	0	377
13	0	0	0	0	638
14	0	0	0	0	381
15	0	0	0	0	638
0	0	0	0	0	371
1	0	0	0	0	645
2	0	0	0	0	376
3	0	0	0	0	641
4	0	0	0	0	376
5	0	0	0	0	644
6	0	0	0	0	381
7	0	0	0	0	641
8	0	0	0	0	375
9	0	0	0	0	644
10	0	0	0	0	373
11	0	0	0	0	645
12	0	0	0	0	372
13	0	0	0	0	636
14	0	0	0	0	382
15	0	0	0	0	639
0	0	0	0	0	380
1	0	0	0	0	647
2	0	0	0	0	370
3	0	0	0	0	639
4	0	0	0	0	374
5	0	0	0	0	646
6	0	0	0	0	373
7	0	0	0	0	647
8	0	0	0	0	376
9	0	0	0	0	646
10	0	0	0	0	379
11	0	0	0	0	640
12	0	0	0	0	376
13	0	0	0	0	641
14	0	0	0	0	375
15	0	0	0	0	649
0	0	0	0	0	372
1	0	0	0	0	641
2	0	0	0	0	375
3	0	0	0	0	641
4	0	0	0	0	374
5	0	0	0	0	641
6	0	0	0	0	373
7	0	0	0	0	641
8	0	0	0	0	368
9	0	0	0	0	647
10	0	0	0	0	371
11	0	0	0	0	648
12	0	0	0	0	373
13	0	0	0	0	646
14	0	0	0	0	372
15	0	0	0	0	648
0	0	0	0	0	367
1	0	0	0	0	638
2	0	0	0	0	368
3	0	0	0	0	645
4	0	0	0	0	380
5	0	0	0	0	641
6	0	0	0	0	375
7	0	0	0	0	649
8	0	0	0	0	377
9	0	0	0	0	641
10	0	0	0	0	374
11	0	0	0	0	645
12	0	0	0	0	376
13	0	0	0	0	644
14	0	0	0	0	372
15	0	0	0	0	648
0	0	0	0	0	373
1	0	0	0	0	645
2	0	0	0	0	372
3	0	0	0	0	652
4	0	0	0	0	376
5	0	0	0	0	647
6	0	0	0	0	376
7	0	0	0	0	651
8	0	0	0	0	375
9	0	0	0	0	651
10	0	0	0	0	370
11	0	0	0	0	643
12	0	0	0	0	368
13	0	0	0	0	651
14	0	0	0	0	371
15	0	0	0	0	642
0	0	0	0	0	372
1	0	0	0	0	649
2	0	0	0	0	371
3	0	0	0	0	642
4	0	0	0	0	368
5	0	0	0	0	651
6	0	0	0	0	371
7	0	0	0	0	647
8	0	0	0	0	371
9	0	0	0	0	647
10	0	0	0	0	366
11	0	0	0	0	650
12	0	0	0	0	367
13	0	0	0	0	643
14	0	0	0	0	374
15	0	0	0	0	642
0	0	0	0	0	370
1	0	0	0	0	645
2	0	0	0	0	373
3	0	0	0	0	648
4	0	0	0	0	377
5	0	0	0	0	653
6	0	0	0	0	369
7	0	0	0	0	649
8	0	0	0	0	374
9	0	0	0	0	649
10	0	0	0	0	376
11	0	0	0	0	645
12	0	0	0	0	366
13	0	0	0	0	649
14	0	0	0	0	363
15	0	0	0	0	645
0	0	0	0	0	372
1	0	0	0	0	645
2	0	0	0	0	372
3	0	0	0	0	641
4	0	0	0	0	366
5	0	0	0	0	643
6	0	0	0	0	362
7	0	0	0	0	644
8	0	0	0	0	365
9	0	0	0	0	646
10	0	0	0	0	371
11	0	0	0	0	645
12	0	0	0	0	380
13	0	0	0	0	640
14	0	0	0	0	371
15	0	0	0	0	650
0	0	0	0	0	366
1	0	0	0	0	645
2	0	0	0	0	373
3	0	0	0	0	643
4	0	0	0	0	367
5	0	0	0	0	651
6	0	0	0	0	375
7	0	0	0	0	644
8	0	0	0	0	366
9	0	0	0	0	648
10	0	0	0	0	373
11	0	0	0	0	645
12	0	0	0	0	363
13	0	0	0	0	652
14	0	0	0	0	373
15	0	0	0	0	652
0	0	0	0	0	363
1	0	0	0	0	648
2	0	0	0	0	365
3	0	0	0	0	644
4	0	0	0	0	372
5	0	0	0	0	648
6	0	0	0	0	375
7	0	0	0	0	644
8	0	0	0	0	367
9	0	0	0	0	646
10	0	0	0	0	366
11	0	0	0	0	644
12	0	0	0	0	364
13	0	0	0	0	649
14	0	0	0	0	366
15	0	0	0	0	654
0	0	0	0	0	372
1	0	0	0	0	641
2	0	0	0	0	364
3	0	0	0	0	648
4	0	0	0	0	375
5	0	0	0	0	641
6	0	0	0	0	368
7	0	0	0	0	650
8	0	0	0	0	363
9	0	0	0	0	643
10	0	0	0	0	363
11	0	0	0	0	653
12	0	0	0	0	372
13	0	0	0	0	642
14	0	0	0	0	372
15	0	0	0	0	652
0	0	0	0	0	364
1	0	0	0	0	652
2	0	0	0	0	375
3	0	0	0	0	647
4	0	0	0	0	374
5	0	0	0	0	641
6	0	0	0	0	364
7	0	0	0	0	651
8	0	0	0	0	358
9	0	0	0	0	648
10	0	0	0	0	372
11	0	0	0	0	651
12	0	0	0	0	367
13	0	0	0	0	648
14	0	0	0	0	360
15	0	0	0	0	650
0	0	0	0	0	366
1	0	0	0	0	651
2	0	0	0	0	373
3	0	0	0	0	652
4	0	0	0	0	369
5	0	0	0	0	653
6	0	0	0	0	360
7	0	0	0	0	652
8	0	0	0	0	366
9	0	0	0	0	646
10	0	0	0	0	359
11	0	0	0	0	652
12	0	0	0	0	368
13	0	0	0	0	648
14	0	0	0	0	359
15	0	0	0	0	646
0	0	0	0	0	357
1	0	0	0	0	648
2	0	0	0	0	366
3	0	0	0	0	645
4	0	0	0	0	368
5	0	0	0	0	643
6	0	0	0	0	363
7	0	0	0	0	650
8	0	0	0	0	370
9	0	0	0	0	652
10	0	0	0	0	366
11	0	0	0	0	646
12	0	0	0	0	360
13	0	0	0	0	657
14	0	0	0	0	362
15	0	0	0	0	650
0	0	0	0	0	360
1	0	0	0	0	648
2	0	0	0	0	368
3	0	0	0	0	650
4	0	0	0	0	366
5	0	0	0	0	647
6	0	0	0	0	364
7	0	0	0	0	649
8	0	0	0	0	362
9	0	0	0	0	652
10	0	0	0	0	357
11	0	0	0	0	640
12	0	0	0	0	366
13	0	0	0	0	650
14	0	0	0	0	364
15	0	0	0	0	649
0	0	0	0	0	369
1	0	0	0	0	656
2	0	0	0	0	365
3	0	0	0	0	656
4	0	0	0	0	366
5	0	0	0	0	645
6	0	0	0	0	366
7	0	0	0	0	646
8	0	0	0	0	359
9	0	0	0	0	653
10	0	0	0	0	366
11	0	0	0	0	639
12	0	0	0	0	364
13	0	0	0	0	645
14	0	0	0	0	363
15	0	0	0	0	647
0	0	0	0	0	367
1	0	0	0	0	655
2	0	0	0	0	359
3	0	0	0	0	644
4	0	0	0	0	358
5	0	0	0	0	650
6	0	0	0	0	359
7	0	0	0	0	651
8	0	0	0	0	365
9	0	0	0	0	655
10	0	0	0	0	364
11	0	0	0	0	650
12	0	0	0	0	374
13	0	0	0	0	654
14	0	0	0	0	360
15	0	0	0	0	643
0	0	0	0	0	370
1	0	0	0	0	650
2	0	0	0	0	359
3	0	0	0	0	655
4	0	0	0	0	360
5	0	0	0	0	646
6	0	0	0	0	363
7	0	0	0	0	654
8	0	0	0	0	368
9	0	0	0	0	648
10	0	0	0	0	359
11	0	0	0	0	648
12	0	0	0	0	358
13	0	0	0	0	655
14	0	0	0	0	365
15	0	0	0	0	652
0	0	0	0	0	364
1	0	0	0	0	648
2	0	0	0	0	365
3	0	0	0	0	650
4	0	0	0	0	369
5	0	0	0	0	647
6	0	0	0	0	364
7	0	0	0	0	653
8	0	0	0	0	357
9	0	0	0	0	650
10	0	0	0	0	357
11	0	0	0	0	649
12	0	0	0	0	366
13	0	0	0	0	645
14	0	0	0	0	365
15	0	0	0	0	652
0	0	0	0	0	363
1	0	0	0	0	656
2	0	0	0	0	367
3	0	0	0	0	652
4	0	0	0	0	362
5	0	0	0	0	652
6	0	0	0	0	360
7	0	0	0	0	649
8	0	0	0	0	364
9	0	0	0	0	649
10	0	0	0	0	364
11	0	0	0	0	652
12	0	0	0	0	366
13	0	0	0	0	653
14	0	0	0	0	364
15	0	0	0	0	658
0	0	0	0	0	360
1	0	0	0	0	646
2	0	0	0	0	369
3	0	0	0	0	653
4	0	0	0	0	360
5	0	0	0	0	647
6	0	0	0	0	356
7	0	0	0	0	650
8	0	0	0	0	366
9	0	0	0	0	654
10	0	0	0	0	369
11	0	0	0	0	649
12	0	0	0	0	361
13	0	0	0	0	650
14	0	0	0	0	359
15	0	0	0	0	654
0	0	0	0	0	366
1	0	0	0	0	652
2	0	0	0	0	363
3	0	0	0	0	659
4	0	0	0	0	357
5	0	0	0	0	649
6	0	0	0	0	366
7	0	0	0	0	640
8	0	0	0	0	359
9	0	0	0	0	644
10	0	0	0	0	368
11	0	0	0	0	651
12	0	0	0	0	358
13	0	0	0	0	658
14	0	0	0	0	374
15	0	0	0	0	652
0	0	0	0	0	369
1	0	0	0	0	649
2	0	0	0	0	364
3	0	0	0	0	650
4	0	0	0	0	366
5	0	0	0	0	660
6	0	0	0	0	355
7	0	0	0	0	646
8	0	0	0	0	354
9	0	0	0	0	647
10	0	0	0	0	362
11	0	0	0	0	648
12	0	0	0	0	358
13	0	0	0	0	649
14	0	0	0	0	368
15	0	0	0	0	652
0	0	0	0	0	360
1	0	0	0	0	654
2	0	0	0	0	365
3	0	0	0	0	649
4	0	0	0	0	363
5	0	0	0	0	646
6	0	0	0	0	362
7	0	0	0	0	645
8	0	0	0	0	362
9	0	0	0	0	651
10	0	0	0	0	357
11	0	0	0	0	651
12	0	0	0	0	364
13	0	0	0	0	652
14	0	0	0	0	365
15	0	0	0	0	644
0	0	0	0	0	369
1	0	0	0	0	645
2	0	0	0	0	356
3	0	0	0	0	646
4	0	0	0	0	360
5	0	0	0	0	650
6	0	0	0	0	368
7	0	0	0	0	642
8	0	0	0	0	360
9	0	0	0	0	645
10	0	0	0	0	360
11	0	0	0	0	651
12	0	0	0	0	357
13	0	0	0	0	654
14	0	0	0	0	366
15	0	0	0	0	644
0	0	0	0	0	367
1	0	0	0	0	654
2	0	0	0	0	369
3	0	0	0	0	644
4	0	0	0	0	363
5	0	0	0	0	646
6	0	0	0	0	364
7	0	0	0	0	649
8	0	0	0	0	363
9	0	0	0	0	645
10	0	0	0	0	364
11	0	0	0	0	654
12	0	0	0	0	362
13	0	0	0	0	649
14	0	0	0	0	354
15	0	0	0	0	644
0	0	0	0	0	367
1	0	0	0	0	649
2	0	0	0	0	364
3	0	0	0	0	651
4	0	0	0	0	364
5	0	0	0	0	651
6	0	0	0	0	374
7	0	0	0	0	654
8	0	0	0	0	357
9	0	0	0	0	648
10	0	0	0	0	361
11	0	0	0	0	652
12	0	0	0	0	357
13	0	0	0	0	643
14	0	0	0	0	364
15	0	0	0	0	650
0	0	0	0	0	361
1	0	0	0	0	649
2	0	0	0	0	369
3	0	0	0	0	649
4	0	0	0	0	363
5	0	0	0	0	650
6	0	0	0	0	364
7	0	0	0	0	652
8	0	0	0	0	364
9	0	0	0	0	649
10	0	0	0	0	365
11	0	0	0	0	652
12	0	0	0	0	354
13	0	0	0	0	654
14	0	0	0	0	370
15	0	0	0	0	650
0	0	0	0	0	360
1	0	0	0	0	653
2	0	0	0	0	364
3	0	0	0	0	644
4	0	0	0	0	368
5	0	0	0	0	648
6	0	0	0	0	365
7	0	0	0	0	656
8	0	0	0	0	364
9	0	0	0	0	645
10	0	0	0	0	358
11	0	0	0	0	652
12	0	0	0	0	367
13	0	0	0	0	651
14	0	0	0	0	356
15	0	0	0	0	651
0	0	0	0	0	360
1	0	0	0	0	655
2	0	0	0	0	364
3	0	0	0	0	650
4	0	0	0	0	355
5	0	0	0	0	651
6	0	0	0	0	368
7	0	0	0	0	641
8	0	0	0	0	360
9	0	0	0	0	649
10	0	0	0	0	363
11	0	0	0	0	646
12	0	0	0	0	360
13	0	0	0	0	646
14	0	0	0	0	362
15	0	0	0	0	648
0	0	0	0	0	359
1	0	0	0	0	650
2	0	0	0	0	356
3	0	0	0	0	656
4	0	0	0	0	360
5	0	0	0	0	652
6	0	0	0	0	367
7	0	0	0	0	644
8	0	0	0	0	357
9	0	0	0	0	654
10	0	0	0	0	363
11	0	0	0	0	649
12	0	0	0	0	363
13	0	0	0	0	649
14	0	0	0	0	362
15	0	0	0	0	648
0	0	0	0	0	361
1	0	0	0	0	655
2	0	0	0	0	359
3	0	0	0	0	652
4	0	0	0	0	355
5	0	0	0	0	655
6	0	0	0	0	363
7	0	0	0	0	650
8	0	0	0	0	362
9	0	0	0	0	651
10	0	0	0	0	366
11	0	0	0	0	653
12	0	0	0	0	360
13	0	0	0	0	650
14	0	0	0	0	360
15	0	0	0	0	653
0	0	0	0	0	360
1	0	0	0	0	653
2	0	0	0	0	363
3	0	0	0	0	645
4	0	0	0	0	356
5	0	0	0	0	648
6	0	0	0	0	367
7	0	0	0	0	652
8	0	0	0	0	355
9	0	0	0	0	656
10	0	0	0	0	368
11	0	0	0	0	649
12	0	0	0	0	357
13	0	0	0	0	644
14	0	0	0	0	358
15	0	0	0	0	648
0	0	0	0	0	361
1	0	0	0	0	651
2	0	0	0	0	360
3	0	0	0	0	650
4	0	0	0	0	359
5	0	0	0	0	650
6	0	0	0	0	362
7	0	0	0	0	655
8	0	0	0	0	367
9	0	0	0	0	648
10	0	0	0	0	360
11	0	0	0	0	649
12	0	0	0	0	358
13	0	0	0	0	645
14	0	0	0	0	363
15	0	0	0	0	648
0	0	0	0	0	364
1	0	0	0	0	653
2	0	0	0	0	363
3	0	0	0	0	649
4	0	0	0	0	366
5	0	0	0	0	647
6	0	0	0	0	361
7	0	0	0	0	648
8	0	0	0	0	362
9	0	0	0	0	650
10	0	0	0	0	364
11	0	0	0	0	648
12	0	0	0	0	366
13	0	0	0	0	652
14	0	0	0	0	369
15	0	0	0	0	644
0	0	0	0	0	356
1	0	0	0	0	651
2	0	0	0	0	363
3	0	0	0	0	654
4	0	0	0	0	366
5	0	0	0	0	648
6	0	0	0	0	356
7	0	0	0	0	653
8	0	0	0	0	359
9	0	0	0	0	644
10	0	0	0	0	360
11	0	0	0	0	652
12	0	0	0	0	369
13	0	0	0	0	644
14	0	0	0	0	364
15	0	0	0	0	648
0	0	0	0	0	358
1	0	0	0	0	648
2	0	0	0	0	356
3	0	0	0	0	653
4	0	0	0	0	355
5	0	0	0	0	647
6	0	0	0	0	355
7	0	0	0	0	647
8	0	0	0	0	364
9	0	0	0	0	655
10	0	0	0	0	356
11	0	0	0	0	653
12	0	0	0	0	360
13	0	0	0	0	648
14	0	0	0	0	359
15	0	0	0	0	641
0	0	0	0	0	366
1	0	0	0	0	649
2	0	0	0	0	359
3	0	0	0	0	653
4	0	0	0	0	360
5	0	0	0	0	657
6	0	0	0	0	364
7	0	0	0	0	644
8	0	0	0	0	369
9	0	0	0	0	645
10	0	0	0	0	366
11	0	0	0	0	644
12	0	0	0	0	370
13	0	0	0	0	651
14	0	0	0	0	363
15	0	0	0	0	646
0	0	0	0	0	360
1	0	0	0	0	652
2	0	0	0	0	365
3	0	0	0	0	647
4	0	0	0	0	361
5	0	0	0	0	646
6	0	0	0	0	366
7	0	0	0	0	653
8	0	0	0	0	358
9	0	0	0	0	646
10	0	0	0	0	369
11	0	0	0	0	644
12	0	0	0	0	358
13	0	0	0	0	648
14	0	0	0	0	357
15	0	0	0	0	648
0	0	0	0	0	360
1	0	0	0	0	652
2	0	0	0	0	367
3	0	0	0	0	651
4	0	0	0	0	368
5	0	0	0	0	654
6	0	0	0	0	357
7	0	0	0	0	646
8	0	0	0	0	357
9	0	0	0	0	657
10	0	0	0	0	361
11	0	0	0	0	653
12	0	0	0	0	364
13	0	0	0	0	652
14	0	0	0	0	365
15	0	0	0	0	648
0	0	0	0	0	357
1	0	0	0	0	648
2	0	0	0	0	366
3	0	0	0	0	655
4	0	0	0	0	368
5	0	0	0	0	645
6	0	0	0	0	360
7	0	0	0	0	651
8	0	0	0	0	360
9	0	0	0	0	647
10	0	0	0	0	358
11	0	0	0	0	644
12	0	0	0	0	363
13	0	0	0	0	650
14	0	0	0	0	359
15	0	0	0	0	652
0	0	0	0	0	363
1	0	0	0	0	656
2	0	0	0	0	365
3	0	0	0	0	646
4	0	0	0	0	366
5	0	0	0	0	647
6	0	0	0	0	362
7	0	0	0	0	653
8	0	0	0	0	351
9	0	0	0	0	652
10	0	0	0	0	366
11	0	0	0	0	646
12	0	0	0	0	363
13	0	0	0	0	642
14	0	0	0	0	357
15	0	0	0	0	645
0	0	0	0	0	362
1	0	0	0	0	651
2	0	0	0	0	362
3	0	0	0	0	644
4	0	0	0	0	365
5	0	0	0	0	650
6	0	0	0	0	364
7	0	0	0	0	647
8	0	0	0	0	363
9	0	0	0	0	651
10	0	0	0	0	361
11	0	0	0	0	651
12	0	0	0	0	368
13	0	0	0	0	648
14	0	0	0	0	361
15	0	0	0	0	647
0	0	0	0	0	371
1	0	0	0	0	647
2	0	0	0	0	356
3	0	0	0	0	646
4	0	0	0	0	363
5	0	0	0	0	661
6	0	0	0	0	365
7	0	0	0	0	651
8	0	0	0	0	361
9	0	0	0	0	651
10	0	0	0	0	358
11	0	0	0	0	648
12	0	0	0	0	360
13	0	0	0	0	654
14	0	0	0	0	363
15	0	0	0	0	654
0	0	0	0	0	365
1	0	0	0	0	649
2	0	0	0	0	363
3	0	0	0	0	650
4	0	0	0	0	360
5	0	0	0	0	649
6	0	0	0	0	361
7	0	0	0	0	652
8	0	0	0	0	360
9	0	0	0	0	651
10	0	0	0	0	358
11	0	0	0	0	649
12	0	0	0	0	363
13	0	0	0	0	645
14	0	0	0	0	361
15	0	0	0	0	648
0	0	0	0	0	360
1	0	0	0	0	653
2	0	0	0	0	366
3	0	0	0	0	655
4	0	0	0	0	359
5	0	0	0	0	649
6	0	0	0	0	369
7	0	0	0	0	644
8	0	0	0	0	364
9	0	0	0	0	651
10	0	0	0	0	354
11	0	0	0	0	648
12	0	0	0	0	360
13	0	0	0	0	657
14	0	0	0	0	363
15	0	0	0	0	649
0	0	0	0	0	362
1	0	0	0	0	653
2	0	0	0	0	359
3	0	0	0	0	654
4	0	0	0	0	357
5	0	0	0	0	649
6	0	0	0	0	356
7	0	0	0	0	652
8	0	0	0	0	364
9	0	0	0	0	648
10	0	0	0	0	360
11	0	0	0	0	642
12	0	0	0	0	361
13	0	0	0	0	646
14	0	0	0	0	357
15	0	0	0	0	652
0	0	0	0	0	360
1	0	0	0	0	650
2	0	0	0	0	350
3	0	0	0	0	649
4	0	0	0	0	363
5	0	0	0	0	640
6	0	0	0	0	360
7	0	0	0	0	649
8	0	0	0	0	362
9	0	0	0	0	644
10	0	0	0	0	357
11	0	0	0	0	646
12	0	0	0	0	368
13	0	0	0	0	648
14	0	0	0	0	364
15	0	0	0	0	651
0	0	0	0	0	362
1	0	0	0	0	651
2	0	0	0	0	360
3	0	0	0	0	645
4	0	0	0	0	358
5	0	0	0	0	645
6	0	0	0	0	363
7	0	0	0	0	643
8	0	0	0	0	357
9	0	0	0	0	649
10	0	0	0	0	364
11	0	0	0	0	651
12	0	0	0	0	357
13	0	0	0	0	649
14	0	0	0	0	360
15	0	0	0	0	645
0	0	0	0	0	360
1	0	0	0	0	646
2	0	0	0	0	368
3	0	0	0	0	653
4	0	0	0	0	359
5	0	0	0	0	644
6	0	0	0	0	358
7	0	0	0	0	652
8	0	0	0	0	364
9	0	0	0	0	647
10	0	0	0	0	369
11	0	0	0	0	649
12	0	0	0	0	359
13	0	0	0	0	655
14	0	0	0	0	364
15	0	0	0	0	646
0	0	0	0	0	365
1	0	0	0	0	647
2	0	0	0	0	363
3	0	0	0	0	648
4	0	0	0	0	362
5	0	0	0	0	655
6	0	0	0	0	362
7	0	0	0	0	655
8	0	0	0	0	356
9	0	0	0	0	651
10	0	0	0	0	368
11	0	0	0	0	647
12	0	0	0	0	358
13	0	0	0	0	642
14	0	0	0	0	364
15	0	0	0	0	652
0	0	0	0	0	366
1	0	0	0	0	652
2	0	0	0	0	368
3	0	0	0	0	650
4	0	0	0	0	364
5	0	0	0	0	647
6	0	0	0	0	366
7	0	0	0	0	644
8	0	0	0	0	361
9	0	0	0	0	652
10	0	0	0	0	365
11	0	0	0	0	646
12	0	0	0	0	359
13	0	0	0	0	651
14	0	0	0	0	363
15	0	0	0	0	650
0	0	0	0	0	357
1	0	0	0	0	648
2	0	0	0	0	360
3	0	0	0	0	653
4	0	0	0	0	362
5	0	0	0	0	652
6	0	0	0	0	360
7	0	0	0	0	654
8	0	0	0	0	363
9	0	0	0	0	649
10	0	0	0	0	362
11	0	0	0	0	656
12	0	0	0	0	362
13	0	0	0	0	640
14	0	0	0	0	364
15	0	0	0	0	655
0	0	0	0	0	364
1	0	0	0	0	649
2	0	0	0	0	364
3	0	0	0	0	641
4	0	0	0	0	363
5	0	0	0	0	646
6	0	0	0	0	365
7	0	0	0	0	646
8	0	0	0	0	361
9	0	0	0	0	652
10	0	0	0	0	356
11	0	0	0	0	643
12	0	0	0	0	364
13	0	0	0	0	652
14	0	0	0	0	366
15	0	0	0	0	651
0	0	0	0	0	359
1	0	0	0	0	654
2	0	0	0	0	366
3	0	0	0	0	645
4	0	0	0	0	365
5	0	0	0	0	654
6	0	0	0	0	362
7	0	0	0	0	648
8	0	0	0	0	364
9	0	0	0	0	652
10	0	0	0	0	361
11	0	0	0	0	656
12	0	0	0	0	358
13	0	0	0	0	648
14	0	0	0	0	371
15	0	0	0	0	652
0	0	0	0	0	362
1	0	0	0	0	656
2	0	0	0	0	361
3	0	0	0	0	649
4	0	0	0	0	355
5	0	0	0	0	643
6	0	0	0	0	357
7	0	0	0	0	648
8	0	0	0	0	361
9	0	0	0	0	643
10	0	0	0	0	371
11	0	0	0	0	652
12	0	0	0	0	359
13	0	0	0	0	643
14	0	0	0	0	360
15	0	0	0	0	646
0	0	0	0	0	364
1	0	0	0	0	652
2	0	0	0	0	357
3	0	0	0	0	648
4	0	0	0	0	362
5	0	0	0	0	644
6	0	0	0	0	361
7	0	0	0	0	651
8	0	0	0	0	366
9	0	0	0	0	646
10	0	0	0	0	360
11	0	0	0	0	652
12	0	0	0	0	363
13	0	0	0	0	648
14	0	0	0	0	367
15	0	0	0	0	647
0	0	0	0	0	362
1	0	0	0	0	647
2	0	0	0	0	358
3	0	0	0	0	652
4	0	0	0	0	364
5	0	0	0	0	642
6	0	0	0	0	361
7	0	0	0	0	648
8	0	0	0	0	364
9	0	0	0	0	646
10	0	0	0	0	358
11	0	0	0	0	652
12	0	0	0	0	360
13	0	0	0	0	645
14	0	0	0	0	368
15	0	0	0	0	646
0	0	0	0	0	359
1	0	0	0	0	644
2	0	0	0	0	365
3	0	0	0	0	644
4	0	0	0	0	363
5	0	0	0	0	649
6	0	0	0	0	363
7	0	0	0	0	646
8	0	0	0	0	365
9	0	0	0	0	648
10	0	0	0	0	358
11	0	0	0	0	651
12	0	0	0	0	363
13	0	0	0	0	649
14	0	0	0	0	360
15	0	0	0	0	642
0	0	0	0	0	363
1	0	0	0	0	651
2	0	0	0	0	358
3	0	0	0	0	653
4	0	0	0	0	356
5	0	0	0	0	651
6	0	0	0	0	363
7	0	0	0	0	645
8	0	0	0	0	362
9	0	0	0	0	647
10	0	0	0	0	363
11	0	0	0	0	651
12	0	0	0	0	364
13	0	0	0	0	654
14	0	0	0	0	356
15	0	0	0	0	654
0	0	0	0	0	362
1	0	0	0	0	652
2	0	0	0	0	365
3	0	0	0	0	651
4	0	0	0	0	363
5	0	0	0	0	648
6	0	0	0	0	364
7	0	0	0	0	648
8	0	0	0	0	360
9	0	0	0	0	645
10	0	0	0	0	364
11	0	0	0	0	642
12	0	0	0	0	360
13	0	0	0	0	648
14	0	0	0	0	354
15	0	0	0	0	645
0	0	0	0	0	359
1	0	0	0	0	644
2	0	0	0	0	360
3	0	0	0	0	652
4	0	0	0	0	368
5	0	0	0	0	649
6	0	0	0	0	362
7	0	0	0	0	648
8	0	0	0	0	355
9	0	0	0	0	648
10	0	0	0	0	357
11	0	0	0	0	653
12	0	0	0	0	363
13	0	0	0	0	651
14	0	0	0	0	360
15	0	0	0	0	645
0	0	0	0	0	359
1	0	0	0	0	642
2	0	0	0	0	361
3	0	0	0	0	643
4	0	0	0	0	361